# TOPAS Version: 3.7
# Parameter File: main
# Results for scorer dose
# Scored in component: Patch
# X in 50 bins of 0.0002 cm
# Y in 50 bins of 0.0002 cm
# Z in 1 bin  of 0.003 cm
# DoseToMedium ( Gy ) : Sum   
0, 0, 0, 1.253845691680908
0, 1, 0, 1.51524806022644
0, 2, 0, 0.3296958804130554
0, 3, 0, 0.6676012873649597
0, 4, 0, 0.6492475867271423
0, 5, 0, 0
0, 6, 0, 1.62883734703064
0, 7, 0, 1.58547842502594
0, 8, 0, 1.991929173469543
0, 9, 0, 0.3376922607421875
0, 10, 0, 0.3331804275512695
0, 11, 0, 0.9639978408813477
0, 12, 0, 0.6513082385063171
0, 13, 0, 0.6530177593231201
0, 14, 0, 0.3555077910423279
0, 15, 0, 1.647027254104614
0, 16, 0, 0.3312933444976807
0, 17, 0, 0.6364985704421997
0, 18, 0, 0.654427707195282
0, 19, 0, 1.018505930900574
0, 20, 0, 0.3221020996570587
0, 21, 0, 1.301756143569946
0, 22, 0, 0.6290449500083923
0, 23, 0, 0.3011224269866943
0, 24, 0, 0.3136600852012634
0, 25, 0, 0.3561509549617767
0, 26, 0, 0.3230098187923431
0, 27, 0, 0.6049501895904541
0, 28, 0, 0.334984689950943
0, 29, 0, 0.9673741459846497
0, 30, 0, 1.700916409492493
0, 31, 0, 0.9424839615821838
0, 32, 0, 0.6309848427772522
0, 33, 0, 0.3162727355957031
0, 34, 0, 0
0, 35, 0, 0.3219757080078125
0, 36, 0, 0.3162994980812073
0, 37, 0, 0.3315986394882202
0, 38, 0, 0.6684741973876953
0, 39, 0, 0.9820160269737244
0, 40, 0, 0
0, 41, 0, 1.312817692756653
0, 42, 0, 0.9058248996734619
0, 43, 0, 0
0, 44, 0, 0.345686674118042
0, 45, 0, 0.3116613626480103
0, 46, 0, 0.978130578994751
0, 47, 0, 0.3048755526542664
0, 48, 0, 1.006976366043091
0, 49, 0, 1.630335569381714
1, 0, 0, 1.254987716674805
1, 1, 0, 1.323933482170105
1, 2, 0, 0.6450621485710144
1, 3, 0, 0
1, 4, 0, 0.2622707486152649
1, 5, 0, 0.6491145491600037
1, 6, 0, 0
1, 7, 0, 0.6432617902755737
1, 8, 0, 1.361591815948486
1, 9, 0, 0.6402042508125305
1, 10, 0, 0.682816207408905
1, 11, 0, 0.9084699749946594
1, 12, 0, 0.333310067653656
1, 13, 0, 0.6922112703323364
1, 14, 0, 0.9907941222190857
1, 15, 0, 0.9920551776885986
1, 16, 0, 0.2995244264602661
1, 17, 0, 0.9478421211242676
1, 18, 0, 0.9554506540298462
1, 19, 0, 0.6612125635147095
1, 20, 0, 0.9891676902770996
1, 21, 0, 1.277356386184692
1, 22, 0, 1.348171472549438
1, 23, 0, 0
1, 24, 0, 0.3177981972694397
1, 25, 0, 1.004662871360779
1, 26, 0, 1.34307861328125
1, 27, 0, 1.02704906463623
1, 28, 0, 0
1, 29, 0, 0.293845534324646
1, 30, 0, 1.626133561134338
1, 31, 0, 0.2919870913028717
1, 32, 0, 0.6816236972808838
1, 33, 0, 0.631930410861969
1, 34, 0, 1.012385845184326
1, 35, 0, 0.8974720239639282
1, 36, 0, 0.9938833713531494
1, 37, 0, 0.3287404477596283
1, 38, 0, 0
1, 39, 0, 0.3335458636283875
1, 40, 0, 0.6360137462615967
1, 41, 0, 0.9012161493301392
1, 42, 0, 0.6229143738746643
1, 43, 0, 0.3518705070018768
1, 44, 0, 0.3015292584896088
1, 45, 0, 0.3339111804962158
1, 46, 0, 0.3142937123775482
1, 47, 0, 0.3144506812095642
1, 48, 0, 0
1, 49, 0, 0
2, 0, 0, 0
2, 1, 0, 0.6076106429100037
2, 2, 0, 0.324817031621933
2, 3, 0, 0.7051325440406799
2, 4, 0, 1.052242159843445
2, 5, 0, 0.6254900693893433
2, 6, 0, 0
2, 7, 0, 0.9997718334197998
2, 8, 0, 0.3529561161994934
2, 9, 0, 0.3344601392745972
2, 10, 0, 0.9378696084022522
2, 11, 0, 1.006310820579529
2, 12, 0, 1.353251695632935
2, 13, 0, 0.339751124382019
2, 14, 0, 0.9853501915931702
2, 15, 0, 0.9237295985221863
2, 16, 0, 0
2, 17, 0, 0.3598473072052002
2, 18, 0, 0.3621923327445984
2, 19, 0, 0.3374805152416229
2, 20, 0, 0.9664718508720398
2, 21, 0, 0.6016475558280945
2, 22, 0, 0.6024839878082275
2, 23, 0, 0
2, 24, 0, 0
2, 25, 0, 0.6268734931945801
2, 26, 0, 0.3734274804592133
2, 27, 0, 0
2, 28, 0, 0.6628807783126831
2, 29, 0, 0.9628875851631165
2, 30, 0, 0.6386924386024475
2, 31, 0, 0.3376912176609039
2, 32, 0, 0
2, 33, 0, 0.6192941069602966
2, 34, 0, 0
2, 35, 0, 0.337053656578064
2, 36, 0, 0.3465289771556854
2, 37, 0, 0.3198142051696777
2, 38, 0, 1.319216370582581
2, 39, 0, 1.343258380889893
2, 40, 0, 1.323906183242798
2, 41, 0, 0.9694968461990356
2, 42, 0, 0.6798988580703735
2, 43, 0, 1.676770091056824
2, 44, 0, 0
2, 45, 0, 0.2858375906944275
2, 46, 0, 0
2, 47, 0, 0.3398629128932953
2, 48, 0, 0.957938551902771
2, 49, 0, 1.598066210746765
3, 0, 0, 0.6243728399276733
3, 1, 0, 0.6250507235527039
3, 2, 0, 0
3, 3, 0, 0.6376971006393433
3, 4, 0, 0.3443039059638977
3, 5, 0, 0
3, 6, 0, 1.007705807685852
3, 7, 0, 0.6783397793769836
3, 8, 0, 0.3250759541988373
3, 9, 0, 0.3479500412940979
3, 10, 0, 0.6597451567649841
3, 11, 0, 0.6487176418304443
3, 12, 0, 0.6770135760307312
3, 13, 0, 0.6423338055610657
3, 14, 0, 1.584185242652893
3, 15, 0, 0
3, 16, 0, 1.690688133239746
3, 17, 0, 0.3189412355422974
3, 18, 0, 0.3375763893127441
3, 19, 0, 0.6307237148284912
3, 20, 0, 1.363875150680542
3, 21, 0, 0.3189163506031036
3, 22, 0, 0
3, 23, 0, 0.6759762167930603
3, 24, 0, 0.2761572897434235
3, 25, 0, 0.6169723868370056
3, 26, 0, 0.6366848945617676
3, 27, 0, 0.6224295496940613
3, 28, 0, 0.6464186906814575
3, 29, 0, 1.024212121963501
3, 30, 0, 0.614862859249115
3, 31, 0, 1.016891121864319
3, 32, 0, 0.2843709290027618
3, 33, 0, 0.6661468148231506
3, 34, 0, 1.011260509490967
3, 35, 0, 1.30097770690918
3, 36, 0, 0
3, 37, 0, 1.003218412399292
3, 38, 0, 0.3331380784511566
3, 39, 0, 0.9452829957008362
3, 40, 0, 0.5909209251403809
3, 41, 0, 0
3, 42, 0, 0.9535919427871704
3, 43, 0, 0.958008885383606
3, 44, 0, 0.9247122406959534
3, 45, 0, 1.294791579246521
3, 46, 0, 0.9718220233917236
3, 47, 0, 0.3192321062088013
3, 48, 0, 0.3284963369369507
3, 49, 0, 0.6273276209831238
4, 0, 0, 0.9264014959335327
4, 1, 0, 1.318567991256714
4, 2, 0, 0.3461948335170746
4, 3, 0, 1.606259107589722
4, 4, 0, 1.328799366950989
4, 5, 0, 0.6386576890945435
4, 6, 0, 0.304477721452713
4, 7, 0, 1.356403946876526
4, 8, 0, 0.6550194621086121
4, 9, 0, 0.3551196753978729
4, 10, 0, 0.2957060039043427
4, 11, 0, 1.011657357215881
4, 12, 0, 0.6308653354644775
4, 13, 0, 0.9248743057250977
4, 14, 0, 0.6692634224891663
4, 15, 0, 0.6149386167526245
4, 16, 0, 0.9418936967849731
4, 17, 0, 1.6532142162323
4, 18, 0, 0.9846163392066956
4, 19, 0, 1.279942035675049
4, 20, 0, 1.30644154548645
4, 21, 0, 1.328511953353882
4, 22, 0, 0.9221593737602234
4, 23, 0, 0.6452136635780334
4, 24, 0, 0.962660551071167
4, 25, 0, 1.034618735313416
4, 26, 0, 0.3294983804225922
4, 27, 0, 0.958544135093689
4, 28, 0, 0.336338222026825
4, 29, 0, 1.00728702545166
4, 30, 0, 0
4, 31, 0, 0.2969675064086914
4, 32, 0, 1.346130728721619
4, 33, 0, 0.3320493102073669
4, 34, 0, 0.6560072898864746
4, 35, 0, 1.740369319915771
4, 36, 0, 0.3131741881370544
4, 37, 0, 1.675773739814758
4, 38, 0, 0.3002092838287354
4, 39, 0, 0.3154909014701843
4, 40, 0, 0.6506083011627197
4, 41, 0, 0.612455427646637
4, 42, 0, 0
4, 43, 0, 0.31767737865448
4, 44, 0, 0.6555353403091431
4, 45, 0, 0.6645755171775818
4, 46, 0, 0.9457417130470276
4, 47, 0, 0.3455615043640137
4, 48, 0, 1.283657789230347
4, 49, 0, 0.9832468032836914
5, 0, 0, 0.6630569696426392
5, 1, 0, 0.9246447086334229
5, 2, 0, 0.6594781279563904
5, 3, 0, 1.237544059753418
5, 4, 0, 0.303486704826355
5, 5, 0, 0.9457768797874451
5, 6, 0, 0.6803722977638245
5, 7, 0, 0.6634455919265747
5, 8, 0, 0
5, 9, 0, 0.6374219059944153
5, 10, 0, 0.2950198352336884
5, 11, 0, 0.995698094367981
5, 12, 0, 0.3295186161994934
5, 13, 0, 1.270320534706116
5, 14, 0, 0
5, 15, 0, 0.323905885219574
5, 16, 0, 0.2622517049312592
5, 17, 0, 0
5, 18, 0, 0
5, 19, 0, 0.2828601896762848
5, 20, 0, 1.323329091072083
5, 21, 0, 0.9513673782348633
5, 22, 0, 0.3518795669078827
5, 23, 0, 1.007341146469116
5, 24, 0, 1.323036551475525
5, 25, 0, 0.6487419009208679
5, 26, 0, 0.6562372446060181
5, 27, 0, 0
5, 28, 0, 0.9682270288467407
5, 29, 0, 1.288666725158691
5, 30, 0, 0.6365419030189514
5, 31, 0, 1.310664296150208
5, 32, 0, 0.3164074718952179
5, 33, 0, 0.634827733039856
5, 34, 0, 0.6197747588157654
5, 35, 0, 0.3360791206359863
5, 36, 0, 1.575863122940063
5, 37, 0, 0
5, 38, 0, 0.6369297504425049
5, 39, 0, 0.6393811702728271
5, 40, 0, 0.6767368316650391
5, 41, 0, 0.3269027173519135
5, 42, 0, 0.9812997579574585
5, 43, 0, 0.9808799028396606
5, 44, 0, 0.6092974543571472
5, 45, 0, 1.30963408946991
5, 46, 0, 0.9713261723518372
5, 47, 0, 0.9571378231048584
5, 48, 0, 0.9779020547866821
5, 49, 0, 0.6878762245178223
6, 0, 0, 0.9904088973999023
6, 1, 0, 0.6315897703170776
6, 2, 0, 1.351102590560913
6, 3, 0, 0.3350127935409546
6, 4, 0, 0.3546129763126373
6, 5, 0, 0.3275071084499359
6, 6, 0, 1.324384927749634
6, 7, 0, 1.963637590408325
6, 8, 0, 1.331717610359192
6, 9, 0, 0.3413653671741486
6, 10, 0, 0.6406922340393066
6, 11, 0, 0.2976343929767609
6, 12, 0, 0.2865437865257263
6, 13, 0, 0.6537447571754456
6, 14, 0, 1.303437471389771
6, 15, 0, 0.6525118350982666
6, 16, 0, 0.317447155714035
6, 17, 0, 0.9311111569404602
6, 18, 0, 1.328020334243774
6, 19, 0, 0.3321623206138611
6, 20, 0, 0.6332055926322937
6, 21, 0, 0.6853286027908325
6, 22, 0, 0.3167966306209564
6, 23, 0, 0
6, 24, 0, 0.9731400012969971
6, 25, 0, 1.005651950836182
6, 26, 0, 0.327884167432785
6, 27, 0, 0.320208340883255
6, 28, 0, 1.321804165840149
6, 29, 0, 0.2676620781421661
6, 30, 0, 0.9171904325485229
6, 31, 0, 0
6, 32, 0, 0
6, 33, 0, 1.067039489746094
6, 34, 0, 1.578967332839966
6, 35, 0, 0
6, 36, 0, 0.9806858897209167
6, 37, 0, 0.6373101472854614
6, 38, 0, 0.3310437202453613
6, 39, 0, 0.6991041302680969
6, 40, 0, 0.6635469794273376
6, 41, 0, 0.3244845867156982
6, 42, 0, 1.014058113098145
6, 43, 0, 0.9135972857475281
6, 44, 0, 0.9803808331489563
6, 45, 0, 1.682337760925293
6, 46, 0, 0
6, 47, 0, 0.6212263107299805
6, 48, 0, 0.3391909301280975
6, 49, 0, 0.6454691886901855
7, 0, 0, 0.6148914098739624
7, 1, 0, 1.951110482215881
7, 2, 0, 0.9640155434608459
7, 3, 0, 0
7, 4, 0, 0
7, 5, 0, 0.9624301791191101
7, 6, 0, 1.332675814628601
7, 7, 0, 0.6585601568222046
7, 8, 0, 0.9772616624832153
7, 9, 0, 0.6952230334281921
7, 10, 0, 0.6501665115356445
7, 11, 0, 0.9800394177436829
7, 12, 0, 0
7, 13, 0, 0.6043471097946167
7, 14, 0, 0.689947247505188
7, 15, 0, 1.282992124557495
7, 16, 0, 1.042214512825012
7, 17, 0, 0.3354277312755585
7, 18, 0, 0.283813089132309
7, 19, 0, 0.6415929198265076
7, 20, 0, 0.282493531703949
7, 21, 0, 0.3253642320632935
7, 22, 0, 1.32981288433075
7, 23, 0, 0.3196929097175598
7, 24, 0, 0
7, 25, 0, 0.969586968421936
7, 26, 0, 0
7, 27, 0, 0.9546883702278137
7, 28, 0, 0.347267746925354
7, 29, 0, 0.6331477165222168
7, 30, 0, 0
7, 31, 0, 0.3217542171478271
7, 32, 0, 0
7, 33, 0, 0.3306795954704285
7, 34, 0, 0.3295745849609375
7, 35, 0, 0.9000198841094971
7, 36, 0, 0.9511090517044067
7, 37, 0, 0
7, 38, 0, 0.994010865688324
7, 39, 0, 0.6568723320960999
7, 40, 0, 0.6351708173751831
7, 41, 0, 1.375366449356079
7, 42, 0, 0.9430174231529236
7, 43, 0, 0.3298720717430115
7, 44, 0, 0.9322847127914429
7, 45, 0, 0.2970707416534424
7, 46, 0, 0
7, 47, 0, 0.6962094902992249
7, 48, 0, 0.6041091680526733
7, 49, 0, 0.3158852756023407
8, 0, 0, 0.6498538851737976
8, 1, 0, 0.9108085036277771
8, 2, 0, 0.6047661304473877
8, 3, 0, 0
8, 4, 0, 0
8, 5, 0, 0.9629872441291809
8, 6, 0, 0.2902620732784271
8, 7, 0, 0.6536275148391724
8, 8, 0, 0.339285671710968
8, 9, 0, 1.319765210151672
8, 10, 0, 0.682644248008728
8, 11, 0, 0.2893853783607483
8, 12, 0, 1.609194040298462
8, 13, 0, 0.6783698797225952
8, 14, 0, 1.000011444091797
8, 15, 0, 0
8, 16, 0, 0.3586343228816986
8, 17, 0, 0.6736727356910706
8, 18, 0, 1.625391244888306
8, 19, 0, 0.3224560022354126
8, 20, 0, 0.3522857427597046
8, 21, 0, 0
8, 22, 0, 1.260481357574463
8, 23, 0, 0.3216636776924133
8, 24, 0, 0.6336541175842285
8, 25, 0, 0.2955597341060638
8, 26, 0, 0.6370717287063599
8, 27, 0, 0.3244516551494598
8, 28, 0, 0.3506279289722443
8, 29, 0, 0.9461362361907959
8, 30, 0, 0.9768252372741699
8, 31, 0, 0.6050134897232056
8, 32, 0, 0
8, 33, 0, 1.342374563217163
8, 34, 0, 0
8, 35, 0, 0.3606026172637939
8, 36, 0, 0
8, 37, 0, 0.7084765434265137
8, 38, 0, 0.3505067825317383
8, 39, 0, 0.3181884586811066
8, 40, 0, 1.214885830879211
8, 41, 0, 0.9876397252082825
8, 42, 0, 1.247998118400574
8, 43, 0, 0.3515076339244843
8, 44, 0, 1.360585689544678
8, 45, 0, 0.9366989731788635
8, 46, 0, 0.6892116665840149
8, 47, 0, 0
8, 48, 0, 0.3014311790466309
8, 49, 0, 1.004298448562622
9, 0, 0, 0.9840166568756104
9, 1, 0, 0.3285652101039886
9, 2, 0, 2.231700420379639
9, 3, 0, 0.3366661071777344
9, 4, 0, 0.6555041074752808
9, 5, 0, 1.255769729614258
9, 6, 0, 0.650915801525116
9, 7, 0, 0.3521948456764221
9, 8, 0, 0.3278643190860748
9, 9, 0, 0.3310755789279938
9, 10, 0, 0.6379136443138123
9, 11, 0, 0.657602071762085
9, 12, 0, 0.6534318923950195
9, 13, 0, 0.317679762840271
9, 14, 0, 2.288775444030762
9, 15, 0, 0.6449561715126038
9, 16, 0, 0.6615685224533081
9, 17, 0, 0.3207624554634094
9, 18, 0, 1.356375455856323
9, 19, 0, 0.3135448694229126
9, 20, 0, 0.3466699421405792
9, 21, 0, 0.6655482649803162
9, 22, 0, 0.9235191345214844
9, 23, 0, 0
9, 24, 0, 0.3122770190238953
9, 25, 0, 0.6086283922195435
9, 26, 0, 0.9812394976615906
9, 27, 0, 1.075804471969604
9, 28, 0, 0.3264738619327545
9, 29, 0, 0.6696445345878601
9, 30, 0, 0.6687002778053284
9, 31, 0, 0.6399872303009033
9, 32, 0, 0
9, 33, 0, 0
9, 34, 0, 0.2821821570396423
9, 35, 0, 0.9281126260757446
9, 36, 0, 0
9, 37, 0, 1.324745416641235
9, 38, 0, 0.9529983401298523
9, 39, 0, 0
9, 40, 0, 0.9198935627937317
9, 41, 0, 1.338428258895874
9, 42, 0, 0.3247388005256653
9, 43, 0, 0.9694247841835022
9, 44, 0, 0
9, 45, 0, 0.638592004776001
9, 46, 0, 0.6393442153930664
9, 47, 0, 0.3240416944026947
9, 48, 0, 0.3151275217533112
9, 49, 0, 0.6316109299659729
10, 0, 0, 0
10, 1, 0, 0
10, 2, 0, 0.9818869233131409
10, 3, 0, 0.3179232478141785
10, 4, 0, 0.5701391696929932
10, 5, 0, 0.679958164691925
10, 6, 0, 0.3479456901550293
10, 7, 0, 0
10, 8, 0, 0.6810833215713501
10, 9, 0, 0.6245775818824768
10, 10, 0, 0.7044739127159119
10, 11, 0, 1.422999024391174
10, 12, 0, 0.3090269267559052
10, 13, 0, 0
10, 14, 0, 1.007666349411011
10, 15, 0, 1.30838418006897
10, 16, 0, 0.2950053513050079
10, 17, 0, 0.3709927201271057
10, 18, 0, 0.3088666796684265
10, 19, 0, 0.6132883429527283
10, 20, 0, 0.6754864454269409
10, 21, 0, 0.6476172804832458
10, 22, 0, 0.3084282577037811
10, 23, 0, 0
10, 24, 0, 0.9851143360137939
10, 25, 0, 0
10, 26, 0, 0.9825095534324646
10, 27, 0, 0
10, 28, 0, 0.6732650399208069
10, 29, 0, 0.2873562276363373
10, 30, 0, 0.3502571582794189
10, 31, 0, 1.035486102104187
10, 32, 0, 0
10, 33, 0, 0.6845629811286926
10, 34, 0, 0.3134944438934326
10, 35, 0, 0.6503159403800964
10, 36, 0, 0.3164589703083038
10, 37, 0, 0
10, 38, 0, 1.711094617843628
10, 39, 0, 0.6686695218086243
10, 40, 0, 0.6909924149513245
10, 41, 0, 0.6992607116699219
10, 42, 0, 0.3498664796352386
10, 43, 0, 0
10, 44, 0, 0.6781383752822876
10, 45, 0, 0.6341643333435059
10, 46, 0, 0
10, 47, 0, 0
10, 48, 0, 0
10, 49, 0, 0.3437926471233368
11, 0, 0, 0.6142382025718689
11, 1, 0, 0.9885473847389221
11, 2, 0, 0.330815464258194
11, 3, 0, 0
11, 4, 0, 0
11, 5, 0, 0.6582726836204529
11, 6, 0, 0
11, 7, 0, 0.6732097864151001
11, 8, 0, 1.014222502708435
11, 9, 0, 0.9913102984428406
11, 10, 0, 0.3107765316963196
11, 11, 0, 0.344080924987793
11, 12, 0, 0.3334082067012787
11, 13, 0, 0.6714971661567688
11, 14, 0, 0.6574636101722717
11, 15, 0, 0.6504355072975159
11, 16, 0, 0.3014661371707916
11, 17, 0, 1.293586730957031
11, 18, 0, 0.6454481482505798
11, 19, 0, 0.6108496785163879
11, 20, 0, 1.334818482398987
11, 21, 0, 0.319108784198761
11, 22, 0, 0.9910009503364563
11, 23, 0, 0.3025727272033691
11, 24, 0, 1.039247274398804
11, 25, 0, 1.020713567733765
11, 26, 0, 0.6123801469802856
11, 27, 0, 0.9464555978775024
11, 28, 0, 1.29720413684845
11, 29, 0, 0.319656103849411
11, 30, 0, 0.6249889731407166
11, 31, 0, 0
11, 32, 0, 1.289469838142395
11, 33, 0, 1.39430820941925
11, 34, 0, 1.014744400978088
11, 35, 0, 0.5857004523277283
11, 36, 0, 0
11, 37, 0, 0.3088426887989044
11, 38, 0, 0.9843432903289795
11, 39, 0, 0.6455883979797363
11, 40, 0, 0.6923600435256958
11, 41, 0, 0.3088394701480865
11, 42, 0, 1.396130323410034
11, 43, 0, 1.003968477249146
11, 44, 0, 1.283696532249451
11, 45, 0, 0.302090972661972
11, 46, 0, 1.237349271774292
11, 47, 0, 0.6443906426429749
11, 48, 0, 0
11, 49, 0, 1.625701308250427
12, 0, 0, 1.26403546333313
12, 1, 0, 0
12, 2, 0, 0.3206217586994171
12, 3, 0, 0.3194835782051086
12, 4, 0, 0
12, 5, 0, 1.33228600025177
12, 6, 0, 0.9970517754554749
12, 7, 0, 0.6467610001564026
12, 8, 0, 0.3259291052818298
12, 9, 0, 0.3315293490886688
12, 10, 0, 0.3298734426498413
12, 11, 0, 1.00535774230957
12, 12, 0, 1.316429376602173
12, 13, 0, 0.2917304337024689
12, 14, 0, 1.011952042579651
12, 15, 0, 0.9318983554840088
12, 16, 0, 1.343908071517944
12, 17, 0, 0.3089923858642578
12, 18, 0, 0.6432315111160278
12, 19, 0, 0.306074857711792
12, 20, 0, 0.3590999841690063
12, 21, 0, 0.6302877068519592
12, 22, 0, 0.3028610348701477
12, 23, 0, 0.6824578642845154
12, 24, 0, 0.6881727576255798
12, 25, 0, 0.6954491138458252
12, 26, 0, 0.6662540435791016
12, 27, 0, 0.3226421475410461
12, 28, 0, 1.252467513084412
12, 29, 0, 0.6386372447013855
12, 30, 0, 0.649931013584137
12, 31, 0, 0.6896340847015381
12, 32, 0, 1.634680151939392
12, 33, 0, 0.297148734331131
12, 34, 0, 2.599856853485107
12, 35, 0, 1.018200039863586
12, 36, 0, 0.9486263990402222
12, 37, 0, 0
12, 38, 0, 1.337767601013184
12, 39, 0, 0.3321979343891144
12, 40, 0, 0.6478999257087708
12, 41, 0, 1.311627268791199
12, 42, 0, 1.915234923362732
12, 43, 0, 0.2952320575714111
12, 44, 0, 0.6142995357513428
12, 45, 0, 0
12, 46, 0, 0.6951307654380798
12, 47, 0, 0.3404243886470795
12, 48, 0, 0.6629947423934937
12, 49, 0, 0
13, 0, 0, 0
13, 1, 0, 0.6625643372535706
13, 2, 0, 0
13, 3, 0, 0
13, 4, 0, 0.9751459956169128
13, 5, 0, 0
13, 6, 0, 0.6577997803688049
13, 7, 0, 0.6683708429336548
13, 8, 0, 1.301494598388672
13, 9, 0, 1.671453833580017
13, 10, 0, 0.3308586776256561
13, 11, 0, 0.3291178345680237
13, 12, 0, 0.6402378678321838
13, 13, 0, 0.9620571136474609
13, 14, 0, 0.3359860181808472
13, 15, 0, 0.6444226503372192
13, 16, 0, 0.9669375419616699
13, 17, 0, 0
13, 18, 0, 0.650592029094696
13, 19, 0, 1.594046115875244
13, 20, 0, 0.3539485335350037
13, 21, 0, 0
13, 22, 0, 0.6359658241271973
13, 23, 0, 0.6739735007286072
13, 24, 0, 0.6393836140632629
13, 25, 0, 0.9593536257743835
13, 26, 0, 1.973343372344971
13, 27, 0, 0.6305280327796936
13, 28, 0, 0
13, 29, 0, 0.9496874213218689
13, 30, 0, 0
13, 31, 0, 0
13, 32, 0, 0.9540120959281921
13, 33, 0, 0.6986250281333923
13, 34, 0, 1.309882640838623
13, 35, 0, 0.2874275743961334
13, 36, 0, 0.9601580500602722
13, 37, 0, 0.3197252452373505
13, 38, 0, 0.3358159363269806
13, 39, 0, 0
13, 40, 0, 0.622204601764679
13, 41, 0, 0.6354149580001831
13, 42, 0, 0.9118068814277649
13, 43, 0, 0
13, 44, 0, 0.658677339553833
13, 45, 0, 0.302033394575119
13, 46, 0, 0.9630125164985657
13, 47, 0, 0.3315357565879822
13, 48, 0, 1.024310231208801
13, 49, 0, 0
14, 0, 0, 0.6511242389678955
14, 1, 0, 0.6245562434196472
14, 2, 0, 0
14, 3, 0, 1.589001655578613
14, 4, 0, 1.614747643470764
14, 5, 0, 1.328746676445007
14, 6, 0, 1.279616117477417
14, 7, 0, 0.3102733194828033
14, 8, 0, 0.6720460653305054
14, 9, 0, 1.246001482009888
14, 10, 0, 1.302510619163513
14, 11, 0, 0.918977677822113
14, 12, 0, 0
14, 13, 0, 0.3288759887218475
14, 14, 0, 0.320033460855484
14, 15, 0, 0
14, 16, 0, 0.6302233338356018
14, 17, 0, 0.9897724390029907
14, 18, 0, 0.3099406361579895
14, 19, 0, 1.059347152709961
14, 20, 0, 0
14, 21, 0, 0
14, 22, 0, 0.2750819623470306
14, 23, 0, 0.3173536956310272
14, 24, 0, 2.280134677886963
14, 25, 0, 0.3733775913715363
14, 26, 0, 1.281413674354553
14, 27, 0, 0.9578335881233215
14, 28, 0, 0.2938964068889618
14, 29, 0, 1.288364887237549
14, 30, 0, 0.7226927876472473
14, 31, 0, 1.387721180915833
14, 32, 0, 0.3392067551612854
14, 33, 0, 0.6234015226364136
14, 34, 0, 0.9909468293190002
14, 35, 0, 0.6522402167320251
14, 36, 0, 0.9817267060279846
14, 37, 0, 0.9635736346244812
14, 38, 0, 0.3097248673439026
14, 39, 0, 1.328919768333435
14, 40, 0, 0
14, 41, 0, 0.3267759382724762
14, 42, 0, 0.325316995382309
14, 43, 0, 1.599343657493591
14, 44, 0, 0
14, 45, 0, 0.3159015774726868
14, 46, 0, 1.019797563552856
14, 47, 0, 1.272730112075806
14, 48, 0, 0
14, 49, 0, 0.6190360188484192
15, 0, 0, 0.6724533438682556
15, 1, 0, 0.3474060297012329
15, 2, 0, 0
15, 3, 0, 0.6337475776672363
15, 4, 0, 0.9941056370735168
15, 5, 0, 1.299497485160828
15, 6, 0, 1.036929726600647
15, 7, 0, 0
15, 8, 0, 1.247329592704773
15, 9, 0, 1.25991690158844
15, 10, 0, 0.664300262928009
15, 11, 0, 0.638815701007843
15, 12, 0, 0.6423309445381165
15, 13, 0, 0.6193623542785645
15, 14, 0, 0.3600835502147675
15, 15, 0, 0.9554601311683655
15, 16, 0, 0
15, 17, 0, 0.3232075273990631
15, 18, 0, 1.296004176139832
15, 19, 0, 0
15, 20, 0, 1.640029668807983
15, 21, 0, 1.646422147750854
15, 22, 0, 0
15, 23, 0, 1.297245621681213
15, 24, 0, 1.257391095161438
15, 25, 0, 1.219272613525391
15, 26, 0, 1.00520658493042
15, 27, 0, 0.955476701259613
15, 28, 0, 1.677337288856506
15, 29, 0, 0.9171181917190552
15, 30, 0, 0.5888609290122986
15, 31, 0, 0.3464270532131195
15, 32, 0, 0.688315749168396
15, 33, 0, 0
15, 34, 0, 0
15, 35, 0, 0.6150287389755249
15, 36, 0, 0.3081252574920654
15, 37, 0, 0.6021982431411743
15, 38, 0, 1.026307225227356
15, 39, 0, 0.3242581486701965
15, 40, 0, 0
15, 41, 0, 1.218343496322632
15, 42, 0, 0.3168059289455414
15, 43, 0, 1.268566966056824
15, 44, 0, 0.9725303053855896
15, 45, 0, 0.3440574705600739
15, 46, 0, 0.3167445659637451
15, 47, 0, 1.043482899665833
15, 48, 0, 1.021303296089172
15, 49, 0, 0.6290250420570374
16, 0, 0, 0
16, 1, 0, 0.9721623659133911
16, 2, 0, 0.3328368961811066
16, 3, 0, 0.3264709115028381
16, 4, 0, 0.3155897259712219
16, 5, 0, 1.329951167106628
16, 6, 0, 0.3298327028751373
16, 7, 0, 1.903361201286316
16, 8, 0, 0
16, 9, 0, 1.300946474075317
16, 10, 0, 0.6345865726470947
16, 11, 0, 0.3186726868152618
16, 12, 0, 0.9520918130874634
16, 13, 0, 0.6344370245933533
16, 14, 0, 0.3297947347164154
16, 15, 0, 0
16, 16, 0, 0.3635199964046478
16, 17, 0, 0.2974195182323456
16, 18, 0, 0
16, 19, 0, 0.3336818516254425
16, 20, 0, 0.6685079336166382
16, 21, 0, 0
16, 22, 0, 0.3501005470752716
16, 23, 0, 0
16, 24, 0, 0.6228649020195007
16, 25, 0, 0.6669060587882996
16, 26, 0, 0.3302592635154724
16, 27, 0, 1.226279139518738
16, 28, 0, 2.2538743019104
16, 29, 0, 1.660776376724243
16, 30, 0, 0.3242404758930206
16, 31, 0, 0.956645667552948
16, 32, 0, 0.3247378468513489
16, 33, 0, 0.6824068427085876
16, 34, 0, 0
16, 35, 0, 0
16, 36, 0, 0.3195816278457642
16, 37, 0, 0.3289777934551239
16, 38, 0, 0.6500613689422607
16, 39, 0, 0.3188284039497375
16, 40, 0, 0
16, 41, 0, 1.319500327110291
16, 42, 0, 0.3032807111740112
16, 43, 0, 0.6419718265533447
16, 44, 0, 1.001177787780762
16, 45, 0, 1.011013746261597
16, 46, 0, 1.677959322929382
16, 47, 0, 0.3244858384132385
16, 48, 0, 0.3295647203922272
16, 49, 0, 0
17, 0, 0, 0
17, 1, 0, 0.9956566691398621
17, 2, 0, 0.8970836400985718
17, 3, 0, 0.9739316701889038
17, 4, 0, 0.6294056177139282
17, 5, 0, 0.3390093743801117
17, 6, 0, 0.6949418783187866
17, 7, 0, 1.009523868560791
17, 8, 0, 1.282637476921082
17, 9, 0, 0.3167873620986938
17, 10, 0, 0.3384353518486023
17, 11, 0, 0.3084352016448975
17, 12, 0, 0
17, 13, 0, 1.314284682273865
17, 14, 0, 0.6407635807991028
17, 15, 0, 0.9353844523429871
17, 16, 0, 0.2901050448417664
17, 17, 0, 0.3210825026035309
17, 18, 0, 0.3017638325691223
17, 19, 0, 0.6783692836761475
17, 20, 0, 0
17, 21, 0, 0.2617884576320648
17, 22, 0, 0.3202246427536011
17, 23, 0, 0.6703957915306091
17, 24, 0, 0.3170717656612396
17, 25, 0, 0.3355455100536346
17, 26, 0, 0.3595296442508698
17, 27, 0, 1.342008829116821
17, 28, 0, 0.6042843461036682
17, 29, 0, 0.9562116861343384
17, 30, 0, 1.258117914199829
17, 31, 0, 0.927449643611908
17, 32, 0, 0
17, 33, 0, 0.6707170009613037
17, 34, 0, 0.648358941078186
17, 35, 0, 0.6632848381996155
17, 36, 0, 0.6173537969589233
17, 37, 0, 0.6791815757751465
17, 38, 0, 0.6537610292434692
17, 39, 0, 1.009445667266846
17, 40, 0, 0
17, 41, 0, 1.303153991699219
17, 42, 0, 0.640780508518219
17, 43, 0, 1.299268364906311
17, 44, 0, 0.703758180141449
17, 45, 0, 0
17, 46, 0, 0.640087902545929
17, 47, 0, 0.6924751996994019
17, 48, 0, 1.324918746948242
17, 49, 0, 0.6119601130485535
18, 0, 0, 0.6509853005409241
18, 1, 0, 0.322611004114151
18, 2, 0, 0.9442643523216248
18, 3, 0, 0.6985591053962708
18, 4, 0, 0.3330775201320648
18, 5, 0, 1.027631044387817
18, 6, 0, 0.2988099455833435
18, 7, 0, 0.6335486173629761
18, 8, 0, 1.019829630851746
18, 9, 0, 0.6506005525588989
18, 10, 0, 1.075732231140137
18, 11, 0, 0.6723389625549316
18, 12, 0, 0.3281064331531525
18, 13, 0, 0.6782873272895813
18, 14, 0, 2.322733640670776
18, 15, 0, 1.256233096122742
18, 16, 0, 1.310301065444946
18, 17, 0, 0.6583878397941589
18, 18, 0, 1.581192135810852
18, 19, 0, 0.6432392597198486
18, 20, 0, 1.000306963920593
18, 21, 0, 0
18, 22, 0, 0.6797410249710083
18, 23, 0, 0
18, 24, 0, 0.668634831905365
18, 25, 0, 1.021007299423218
18, 26, 0, 1.26893150806427
18, 27, 0, 0.3235595524311066
18, 28, 0, 1.262758612632751
18, 29, 0, 0.952282726764679
18, 30, 0, 0.6531087756156921
18, 31, 0, 0.982316255569458
18, 32, 0, 0.6400580406188965
18, 33, 0, 1.257829070091248
18, 34, 0, 0.9765734672546387
18, 35, 0, 0.303311824798584
18, 36, 0, 0.3411549925804138
18, 37, 0, 0
18, 38, 0, 0.3241231441497803
18, 39, 0, 0.3339788913726807
18, 40, 0, 1.316149950027466
18, 41, 0, 0.3174708783626556
18, 42, 0, 0.3286440968513489
18, 43, 0, 0.9888059496879578
18, 44, 0, 0.9916603565216064
18, 45, 0, 0.3166130185127258
18, 46, 0, 0
18, 47, 0, 1.263535141944885
18, 48, 0, 0
18, 49, 0, 0.9532985091209412
19, 0, 0, 1.012489795684814
19, 1, 0, 0.6688412427902222
19, 2, 0, 0.9699068069458008
19, 3, 0, 0
19, 4, 0, 1.925350546836853
19, 5, 0, 0.3138067424297333
19, 6, 0, 0.3285730481147766
19, 7, 0, 0.3307232260704041
19, 8, 0, 1.010976314544678
19, 9, 0, 0.6980418562889099
19, 10, 0, 0.3429694771766663
19, 11, 0, 1.278135657310486
19, 12, 0, 1.299374580383301
19, 13, 0, 0.9916154742240906
19, 14, 0, 0.9780522584915161
19, 15, 0, 0
19, 16, 0, 0
19, 17, 0, 0.3400274813175201
19, 18, 0, 0
19, 19, 0, 0.6440821886062622
19, 20, 0, 1.302320241928101
19, 21, 0, 0.3077899217605591
19, 22, 0, 1.270859956741333
19, 23, 0, 0.2799115777015686
19, 24, 0, 0.6374574303627014
19, 25, 0, 1.302407383918762
19, 26, 0, 0.3167312741279602
19, 27, 0, 0.6103684902191162
19, 28, 0, 1.326309680938721
19, 29, 0, 0.3099067211151123
19, 30, 0, 0.9979716539382935
19, 31, 0, 0
19, 32, 0, 0.6323162317276001
19, 33, 0, 0
19, 34, 0, 1.62204372882843
19, 35, 0, 0.3365541994571686
19, 36, 0, 0.9724090099334717
19, 37, 0, 0.3358849883079529
19, 38, 0, 0.6139640808105469
19, 39, 0, 0.3298428356647491
19, 40, 0, 0
19, 41, 0, 0.9509610533714294
19, 42, 0, 0.7413895130157471
19, 43, 0, 0.6090917587280273
19, 44, 0, 0.3259222507476807
19, 45, 0, 0.6792412996292114
19, 46, 0, 0.6568520665168762
19, 47, 0, 0.2985240519046783
19, 48, 0, 0.3323755860328674
19, 49, 0, 0
20, 0, 0, 0.3193604946136475
20, 1, 0, 0
20, 2, 0, 0.3340553343296051
20, 3, 0, 0.3280570507049561
20, 4, 0, 0.6225444674491882
20, 5, 0, 0.291523814201355
20, 6, 0, 0.6712944507598877
20, 7, 0, 0.6447938680648804
20, 8, 0, 0.6209911108016968
20, 9, 0, 0.6320055723190308
20, 10, 0, 1.001805424690247
20, 11, 0, 0
20, 12, 0, 0
20, 13, 0, 0
20, 14, 0, 0.31366166472435
20, 15, 0, 0.3347090482711792
20, 16, 0, 0.2950169742107391
20, 17, 0, 1.008137583732605
20, 18, 0, 1.345782876014709
20, 19, 0, 0
20, 20, 0, 0.2976669669151306
20, 21, 0, 0.2970245480537415
20, 22, 0, 0.6319342851638794
20, 23, 0, 0
20, 24, 0, 1.761336922645569
20, 25, 0, 0
20, 26, 0, 0.7039667367935181
20, 27, 0, 0.3347630202770233
20, 28, 0, 1.055570602416992
20, 29, 0, 0.6506919860839844
20, 30, 0, 0.3387858867645264
20, 31, 0, 0.3448526263237
20, 32, 0, 0
20, 33, 0, 0
20, 34, 0, 0.2802858352661133
20, 35, 0, 1.317588210105896
20, 36, 0, 0.3407331109046936
20, 37, 0, 0.6813675165176392
20, 38, 0, 0.3318003118038177
20, 39, 0, 0.6321232914924622
20, 40, 0, 0.3373515605926514
20, 41, 0, 0.6036185622215271
20, 42, 0, 0.9537772536277771
20, 43, 0, 1.339681029319763
20, 44, 0, 0.9955819845199585
20, 45, 0, 0.6338110566139221
20, 46, 0, 1.010105967521667
20, 47, 0, 1.011382579803467
20, 48, 0, 0.952742338180542
20, 49, 0, 0
21, 0, 0, 1.007162094116211
21, 1, 0, 0.3108598589897156
21, 2, 0, 0.963360071182251
21, 3, 0, 0
21, 4, 0, 0.6525310873985291
21, 5, 0, 0.2951253652572632
21, 6, 0, 1.307254672050476
21, 7, 0, 0.3009210824966431
21, 8, 0, 0.9297048449516296
21, 9, 0, 0.621327817440033
21, 10, 0, 1.249149799346924
21, 11, 0, 0.3133282065391541
21, 12, 0, 0.3440090417861938
21, 13, 0, 0.3105278015136719
21, 14, 0, 0.2988609373569489
21, 15, 0, 0.9647595286369324
21, 16, 0, 0.9198706746101379
21, 17, 0, 1.009713530540466
21, 18, 0, 0.9295971393585205
21, 19, 0, 0.6485463380813599
21, 20, 0, 1.634823679924011
21, 21, 0, 0.3018361926078796
21, 22, 0, 0.9924511909484863
21, 23, 0, 0.6761494874954224
21, 24, 0, 0.669994592666626
21, 25, 0, 1.29194164276123
21, 26, 0, 0.3023878633975983
21, 27, 0, 0.6653113961219788
21, 28, 0, 0.9756472706794739
21, 29, 0, 0.9286178350448608
21, 30, 0, 0
21, 31, 0, 0.6209630966186523
21, 32, 0, 0.6573589444160461
21, 33, 0, 0.6460832357406616
21, 34, 0, 0
21, 35, 0, 0.6630836129188538
21, 36, 0, 0.3363260626792908
21, 37, 0, 0.9269528388977051
21, 38, 0, 1.310015559196472
21, 39, 0, 0.3231592774391174
21, 40, 0, 0.3381709456443787
21, 41, 0, 0.3198288679122925
21, 42, 0, 0.6264179944992065
21, 43, 0, 1.041949272155762
21, 44, 0, 0.9939855933189392
21, 45, 0, 0.6696102023124695
21, 46, 0, 0
21, 47, 0, 1.291991829872131
21, 48, 0, 0.6868860721588135
21, 49, 0, 0.3348734676837921
22, 0, 0, 0.3188844621181488
22, 1, 0, 0.3293968737125397
22, 2, 0, 0.3465147316455841
22, 3, 0, 0.9617817401885986
22, 4, 0, 0.5936635136604309
22, 5, 0, 1.665115118026733
22, 6, 0, 0
22, 7, 0, 0.3369504511356354
22, 8, 0, 1.008180618286133
22, 9, 0, 0.3291198015213013
22, 10, 0, 0.3258922100067139
22, 11, 0, 1.017850995063782
22, 12, 0, 0.3165788352489471
22, 13, 0, 1.627886056900024
22, 14, 0, 0.8938563466072083
22, 15, 0, 0.3558405041694641
22, 16, 0, 0.3594151139259338
22, 17, 0, 0
22, 18, 0, 1.246376156806946
