# TOPAS Version: 3.7
# Parameter File: main
# Results for scorer dose
# Scored in component: Patch
# X in 50 bins of 0.0002 cm
# Y in 50 bins of 0.0002 cm
# Z in 1 bin  of 0.003 cm
# DoseToMedium ( Gy ) : Sum   
0, 0, 0, 0.6291161179542542
0, 1, 0, 0.9044434428215027
0, 2, 0, 0.3296958804130554
0, 3, 0, 0
0, 4, 0, 0.6492475867271423
0, 5, 0, 0
0, 6, 0, 0.674665629863739
0, 7, 0, 1.258897304534912
0, 8, 0, 1.349972724914551
0, 9, 0, 0
0, 10, 0, 0
0, 11, 0, 0.641002357006073
0, 12, 0, 0.3253691494464874
0, 13, 0, 0.6530177593231201
0, 14, 0, 0.3555077910423279
0, 15, 0, 1.321371793746948
0, 16, 0, 0.3312933444976807
0, 17, 0, 0.6364985704421997
0, 18, 0, 0.3001075983047485
0, 19, 0, 0.3164474368095398
0, 20, 0, 0
0, 21, 0, 0.3331316113471985
0, 22, 0, 0
0, 23, 0, 0.3011224269866943
0, 24, 0, 0.3136600852012634
0, 25, 0, 0
0, 26, 0, 0
0, 27, 0, 0.6049501895904541
0, 28, 0, 0
0, 29, 0, 0.9673741459846497
0, 30, 0, 0.3612284660339355
0, 31, 0, 0.2802575528621674
0, 32, 0, 0
0, 33, 0, 0.3162727355957031
0, 34, 0, 0
0, 35, 0, 0
0, 36, 0, 0
0, 37, 0, 0.3315986394882202
0, 38, 0, 0.3636662364006042
0, 39, 0, 0.3294971585273743
0, 40, 0, 0
0, 41, 0, 0.6498669981956482
0, 42, 0, 0.2964940071105957
0, 43, 0, 0
0, 44, 0, 0
0, 45, 0, 0.3116613626480103
0, 46, 0, 0.3371945321559906
0, 47, 0, 0
0, 48, 0, 0.7054031491279602
0, 49, 0, 1.299713015556335
1, 0, 0, 0.3529213070869446
1, 1, 0, 0
1, 2, 0, 0.3306895792484283
1, 3, 0, 0
1, 4, 0, 0
1, 5, 0, 0.3022607564926147
1, 6, 0, 0
1, 7, 0, 0.6432617902755737
1, 8, 0, 1.027676343917847
1, 9, 0, 0
1, 10, 0, 0.682816207408905
1, 11, 0, 0.6072884798049927
1, 12, 0, 0
1, 13, 0, 0.6922112703323364
1, 14, 0, 0.9907941222190857
1, 15, 0, 0.6710620522499084
1, 16, 0, 0.2995244264602661
1, 17, 0, 0.9478421211242676
1, 18, 0, 0.6274747848510742
1, 19, 0, 0.3315283954143524
1, 20, 0, 0.3691573441028595
1, 21, 0, 0.9770380258560181
1, 22, 0, 0.6736041307449341
1, 23, 0, 0
1, 24, 0, 0.3177981972694397
1, 25, 0, 1.004662871360779
1, 26, 0, 0.6675846576690674
1, 27, 0, 0.6848707795143127
1, 28, 0, 0
1, 29, 0, 0
1, 30, 0, 0.9602524042129517
1, 31, 0, 0.2919870913028717
1, 32, 0, 0.3487754762172699
1, 33, 0, 0.631930410861969
1, 34, 0, 0.6607862114906311
1, 35, 0, 0.8974720239639282
1, 36, 0, 0.670784592628479
1, 37, 0, 0
1, 38, 0, 0
1, 39, 0, 0.3335458636283875
1, 40, 0, 0.6360137462615967
1, 41, 0, 0.2947257459163666
1, 42, 0, 0.6229143738746643
1, 43, 0, 0.3518705070018768
1, 44, 0, 0
1, 45, 0, 0
1, 46, 0, 0.3142937123775482
1, 47, 0, 0.3144506812095642
1, 48, 0, 0
1, 49, 0, 0
2, 0, 0, 0
2, 1, 0, 0.2982130646705627
2, 2, 0, 0.324817031621933
2, 3, 0, 0.7051325440406799
2, 4, 0, 0.3469321727752686
2, 5, 0, 0.3231246471405029
2, 6, 0, 0
2, 7, 0, 0.9997718334197998
2, 8, 0, 0
2, 9, 0, 0
2, 10, 0, 0.619819164276123
2, 11, 0, 0
2, 12, 0, 0.9972810745239258
2, 13, 0, 0
2, 14, 0, 0.3198948502540588
2, 15, 0, 0.9237295985221863
2, 16, 0, 0
2, 17, 0, 0.3598473072052002
2, 18, 0, 0.3621923327445984
2, 19, 0, 0
2, 20, 0, 0.637745201587677
2, 21, 0, 0
2, 22, 0, 0.3130633533000946
2, 23, 0, 0
2, 24, 0, 0
2, 25, 0, 0.3340828716754913
2, 26, 0, 0.3734274804592133
2, 27, 0, 0
2, 28, 0, 0.3346093595027924
2, 29, 0, 0
2, 30, 0, 0.6386924386024475
2, 31, 0, 0.3376912176609039
2, 32, 0, 0
2, 33, 0, 0
2, 34, 0, 0
2, 35, 0, 0
2, 36, 0, 0.3465289771556854
2, 37, 0, 0
2, 38, 0, 0.978752076625824
2, 39, 0, 0.6411620378494263
2, 40, 0, 0.6364155411720276
2, 41, 0, 0.9694968461990356
2, 42, 0, 0
2, 43, 0, 1.318971157073975
2, 44, 0, 0
2, 45, 0, 0.2858375906944275
2, 46, 0, 0
2, 47, 0, 0
2, 48, 0, 0.3431205153465271
2, 49, 0, 0.9469366073608398
3, 0, 0, 0.3034713268280029
3, 1, 0, 0.3048651516437531
3, 2, 0, 0
3, 3, 0, 0.3262189924716949
3, 4, 0, 0.3443039059638977
3, 5, 0, 0
3, 6, 0, 0.3297065198421478
3, 7, 0, 0.3419436514377594
3, 8, 0, 0.3250759541988373
3, 9, 0, 0
3, 10, 0, 0.6597451567649841
3, 11, 0, 0.3114363849163055
3, 12, 0, 0.3612391948699951
3, 13, 0, 0.3348686993122101
3, 14, 0, 1.260820388793945
3, 15, 0, 0
3, 16, 0, 0.6834995150566101
3, 17, 0, 0.3189412355422974
3, 18, 0, 0.3375763893127441
3, 19, 0, 0
3, 20, 0, 0.3468621373176575
3, 21, 0, 0.3189163506031036
3, 22, 0, 0
3, 23, 0, 0.6759762167930603
3, 24, 0, 0
3, 25, 0, 0.2713496387004852
3, 26, 0, 0.3019473552703857
3, 27, 0, 0.6224295496940613
3, 28, 0, 0.6464186906814575
3, 29, 0, 1.024212121963501
3, 30, 0, 0.3150167763233185
3, 31, 0, 0.6762504577636719
3, 32, 0, 0.2843709290027618
3, 33, 0, 0.3292216062545776
3, 34, 0, 0.6645345687866211
3, 35, 0, 0.6486429572105408
3, 36, 0, 0
3, 37, 0, 0.7135621309280396
3, 38, 0, 0.3331380784511566
3, 39, 0, 0.3055238425731659
3, 40, 0, 0.2956529259681702
3, 41, 0, 0
3, 42, 0, 0.6281517148017883
3, 43, 0, 0.958008885383606
3, 44, 0, 0
3, 45, 0, 0
3, 46, 0, 0.9718220233917236
3, 47, 0, 0
3, 48, 0, 0.3284963369369507
3, 49, 0, 0
4, 0, 0, 0.2860302031040192
4, 1, 0, 0.6377790570259094
4, 2, 0, 0
4, 3, 0, 1.317008137702942
4, 4, 0, 0.3589998483657837
4, 5, 0, 0.6386576890945435
4, 6, 0, 0.304477721452713
4, 7, 0, 0.9907501935958862
4, 8, 0, 0
4, 9, 0, 0
4, 10, 0, 0.2957060039043427
4, 11, 0, 0
4, 12, 0, 0.6308653354644775
4, 13, 0, 0.9248743057250977
4, 14, 0, 0.3225891292095184
4, 15, 0, 0.6149386167526245
4, 16, 0, 0
4, 17, 0, 1.28175163269043
4, 18, 0, 0.9846163392066956
4, 19, 0, 0.6707956194877625
4, 20, 0, 0.3356615006923676
4, 21, 0, 0.9835169315338135
4, 22, 0, 0.9221593737602234
4, 23, 0, 0.3338863849639893
4, 24, 0, 0.962660551071167
4, 25, 0, 0.3747763931751251
4, 26, 0, 0
4, 27, 0, 0.2909384369850159
4, 28, 0, 0
4, 29, 0, 0.3437979221343994
4, 30, 0, 0
4, 31, 0, 0.2969675064086914
4, 32, 0, 1.032281994819641
4, 33, 0, 0.3320493102073669
4, 34, 0, 0.6560072898864746
4, 35, 0, 0.3407328128814697
4, 36, 0, 0.3131741881370544
4, 37, 0, 0.6586263179779053
4, 38, 0, 0.3002092838287354
4, 39, 0, 0
4, 40, 0, 0.3161442577838898
4, 41, 0, 0
4, 42, 0, 0
4, 43, 0, 0
4, 44, 0, 0.6555353403091431
4, 45, 0, 0.6645755171775818
4, 46, 0, 0.6348776817321777
4, 47, 0, 0.3455615043640137
4, 48, 0, 0.3231806457042694
4, 49, 0, 0.9832468032836914
5, 0, 0, 0.3302256464958191
5, 1, 0, 0.9246447086334229
5, 2, 0, 0.6594781279563904
5, 3, 0, 0.9390559792518616
5, 4, 0, 0.303486704826355
5, 5, 0, 0.9457768797874451
5, 6, 0, 0.6803722977638245
5, 7, 0, 0.3479161560535431
5, 8, 0, 0
5, 9, 0, 0
5, 10, 0, 0.2950198352336884
5, 11, 0, 0.6598742604255676
5, 12, 0, 0.3295186161994934
5, 13, 0, 0.9742642641067505
5, 14, 0, 0
5, 15, 0, 0.323905885219574
5, 16, 0, 0.2622517049312592
5, 17, 0, 0
5, 18, 0, 0
5, 19, 0, 0
5, 20, 0, 0.671073317527771
5, 21, 0, 0.6541879773139954
5, 22, 0, 0
5, 23, 0, 0.3343238830566406
5, 24, 0, 0.3424305319786072
5, 25, 0, 0.3281039297580719
5, 26, 0, 0.6562372446060181
5, 27, 0, 0
5, 28, 0, 0
5, 29, 0, 0.3262776732444763
5, 30, 0, 0.6365419030189514
5, 31, 0, 0.6652930974960327
5, 32, 0, 0
5, 33, 0, 0.3320429921150208
5, 34, 0, 0.32481449842453
5, 35, 0, 0.3360791206359863
5, 36, 0, 1.259418725967407
5, 37, 0, 0
5, 38, 0, 0.3139139413833618
5, 39, 0, 0.6393811702728271
5, 40, 0, 0.3205371797084808
5, 41, 0, 0
5, 42, 0, 0.6460663080215454
5, 43, 0, 0.3273186087608337
5, 44, 0, 0.2990439236164093
5, 45, 0, 1.30963408946991
5, 46, 0, 0.3499719500541687
5, 47, 0, 0.9571378231048584
5, 48, 0, 0.9779020547866821
5, 49, 0, 0.3680237233638763
6, 0, 0, 0.9904088973999023
6, 1, 0, 0.3153524696826935
6, 2, 0, 0.3323565125465393
6, 3, 0, 0.3350127935409546
6, 4, 0, 0
6, 5, 0, 0.3275071084499359
6, 6, 0, 0.6519319415092468
6, 7, 0, 0.2862262427806854
6, 8, 0, 0.9991708993911743
6, 9, 0, 0.3413653671741486
6, 10, 0, 0.3219120800495148
6, 11, 0, 0.2976343929767609
6, 12, 0, 0.2865437865257263
6, 13, 0, 0.3332448899745941
6, 14, 0, 0.6540910005569458
6, 15, 0, 0.6525118350982666
6, 16, 0, 0
6, 17, 0, 0.6252677440643311
6, 18, 0, 0.66161048412323
6, 19, 0, 0.3321623206138611
6, 20, 0, 0.3099105954170227
6, 21, 0, 0.6853286027908325
6, 22, 0, 0
6, 23, 0, 0
6, 24, 0, 0.9731400012969971
6, 25, 0, 1.005651950836182
6, 26, 0, 0
6, 27, 0, 0
6, 28, 0, 0.3399896025657654
6, 29, 0, 0.2676620781421661
6, 30, 0, 0.2975220084190369
6, 31, 0, 0
6, 32, 0, 0
6, 33, 0, 0.3482279479503632
6, 34, 0, 0.3149356544017792
6, 35, 0, 0
6, 36, 0, 0.9806858897209167
6, 37, 0, 0.3144504129886627
6, 38, 0, 0.3310437202453613
6, 39, 0, 0.6991041302680969
6, 40, 0, 0.3097730576992035
6, 41, 0, 0.3244845867156982
6, 42, 0, 0.3437572717666626
6, 43, 0, 0.9135972857475281
6, 44, 0, 0.6558252573013306
6, 45, 0, 0.7018883228302002
6, 46, 0, 0
6, 47, 0, 0.3208302855491638
6, 48, 0, 0.3391909301280975
6, 49, 0, 0.3000976741313934
7, 0, 0, 0.6148914098739624
7, 1, 0, 1.312265515327454
7, 2, 0, 0.3080082833766937
7, 3, 0, 0
7, 4, 0, 0
7, 5, 0, 0.6504812240600586
7, 6, 0, 1.016309142112732
7, 7, 0, 0.6585601568222046
7, 8, 0, 0.6432955861091614
7, 9, 0, 0.6952230334281921
7, 10, 0, 0.6501665115356445
7, 11, 0, 0.3177772760391235
7, 12, 0, 0
7, 13, 0, 0.2937553822994232
7, 14, 0, 0.3239766657352448
7, 15, 0, 0.2987495958805084
7, 16, 0, 0.6892458200454712
7, 17, 0, 0.3354277312755585
7, 18, 0, 0
7, 19, 0, 0.6415929198265076
7, 20, 0, 0
7, 21, 0, 0
7, 22, 0, 0.9853150248527527
7, 23, 0, 0.3196929097175598
7, 24, 0, 0
7, 25, 0, 0.969586968421936
7, 26, 0, 0
7, 27, 0, 0.9546883702278137
7, 28, 0, 0
7, 29, 0, 0.3165411651134491
7, 30, 0, 0
7, 31, 0, 0.3217542171478271
7, 32, 0, 0
7, 33, 0, 0
7, 34, 0, 0.3295745849609375
7, 35, 0, 0.6194601058959961
7, 36, 0, 0.6281461119651794
7, 37, 0, 0
7, 38, 0, 0.3299718797206879
7, 39, 0, 0.6568723320960999
7, 40, 0, 0.334513783454895
7, 41, 0, 0.6891167163848877
7, 42, 0, 0.9430174231529236
7, 43, 0, 0.3298720717430115
7, 44, 0, 0.9322847127914429
7, 45, 0, 0
7, 46, 0, 0
7, 47, 0, 0.3450239598751068
7, 48, 0, 0.3101918995380402
7, 49, 0, 0.3158852756023407
8, 0, 0, 0.6498538851737976
8, 1, 0, 0.6023294925689697
8, 2, 0, 0
8, 3, 0, 0
8, 4, 0, 0
8, 5, 0, 0.3198360800743103
8, 6, 0, 0.2902620732784271
8, 7, 0, 0.3220683634281158
8, 8, 0, 0.339285671710968
8, 9, 0, 0.3211368918418884
8, 10, 0, 0
8, 11, 0, 0.2893853783607483
8, 12, 0, 0.9915534853935242
8, 13, 0, 0.3577829003334045
8, 14, 0, 1.000011444091797
8, 15, 0, 0
8, 16, 0, 0
8, 17, 0, 0.3393186330795288
8, 18, 0, 0.9748890995979309
8, 19, 0, 0.3224560022354126
8, 20, 0, 0
8, 21, 0, 0
8, 22, 0, 0
8, 23, 0, 0.3216636776924133
8, 24, 0, 0.3175061643123627
8, 25, 0, 0
8, 26, 0, 0.3205322027206421
8, 27, 0, 0
8, 28, 0, 0.3506279289722443
8, 29, 0, 0
8, 30, 0, 0
8, 31, 0, 0.2969640791416168
8, 32, 0, 0
8, 33, 0, 0
8, 34, 0, 0
8, 35, 0, 0
8, 36, 0, 0
8, 37, 0, 0.7084765434265137
8, 38, 0, 0.3505067825317383
8, 39, 0, 0.3181884586811066
8, 40, 0, 0.3050580024719238
8, 41, 0, 0.3339122235774994
8, 42, 0, 0.3154590725898743
8, 43, 0, 0
8, 44, 0, 0.3369456827640533
8, 45, 0, 0.6360284090042114
8, 46, 0, 0
8, 47, 0, 0
8, 48, 0, 0.3014311790466309
8, 49, 0, 0.3374736905097961
9, 0, 0, 0.3379732668399811
9, 1, 0, 0.3285652101039886
9, 2, 0, 0.9804486036300659
9, 3, 0, 0.3366661071777344
9, 4, 0, 0.3212860524654388
9, 5, 0, 0.9442638754844666
9, 6, 0, 0
9, 7, 0, 0
9, 8, 0, 0.3278643190860748
9, 9, 0, 0
9, 10, 0, 0.3169063925743103
9, 11, 0, 0.3323549926280975
9, 12, 0, 0
9, 13, 0, 0.317679762840271
9, 14, 0, 1.268003702163696
9, 15, 0, 0.6449561715126038
9, 16, 0, 0.6615685224533081
9, 17, 0, 0
9, 18, 0, 0.3243463933467865
9, 19, 0, 0
9, 20, 0, 0
9, 21, 0, 0.6655482649803162
9, 22, 0, 0.6093668937683105
9, 23, 0, 0
9, 24, 0, 0.3122770190238953
9, 25, 0, 0.3264325261116028
9, 26, 0, 0.3324741721153259
9, 27, 0, 0.7011964917182922
9, 28, 0, 0
9, 29, 0, 0
9, 30, 0, 0.3336688578128815
9, 31, 0, 0.3297492563724518
9, 32, 0, 0
9, 33, 0, 0
9, 34, 0, 0.2821821570396423
9, 35, 0, 0.2699087262153625
9, 36, 0, 0
9, 37, 0, 0.3437850475311279
9, 38, 0, 0.9529983401298523
9, 39, 0, 0
9, 40, 0, 0.9198935627937317
9, 41, 0, 1.011551141738892
9, 42, 0, 0.3247388005256653
9, 43, 0, 0.9694247841835022
9, 44, 0, 0
9, 45, 0, 0
9, 46, 0, 0.332709938287735
9, 47, 0, 0.3240416944026947
9, 48, 0, 0.3151275217533112
9, 49, 0, 0.6316109299659729
10, 0, 0, 0
10, 1, 0, 0
10, 2, 0, 0
10, 3, 0, 0
10, 4, 0, 0.2997903823852539
10, 5, 0, 0.3172018826007843
10, 6, 0, 0
10, 7, 0, 0
10, 8, 0, 0.3457705080509186
10, 9, 0, 0
10, 10, 0, 0.3302595615386963
10, 11, 0, 0.6860966682434082
10, 12, 0, 0
10, 13, 0, 0
10, 14, 0, 1.007666349411011
10, 15, 0, 0.3273961842060089
10, 16, 0, 0.2950053513050079
10, 17, 0, 0.3709927201271057
10, 18, 0, 0
10, 19, 0, 0.6132883429527283
10, 20, 0, 0.3114983141422272
10, 21, 0, 0.6476172804832458
10, 22, 0, 0
10, 23, 0, 0
10, 24, 0, 0.3181062340736389
10, 25, 0, 0
10, 26, 0, 0
10, 27, 0, 0
10, 28, 0, 0.3190791308879852
10, 29, 0, 0.2873562276363373
10, 30, 0, 0
10, 31, 0, 0.7025627493858337
10, 32, 0, 0
10, 33, 0, 0
10, 34, 0, 0.3134944438934326
10, 35, 0, 0.3199896216392517
10, 36, 0, 0
10, 37, 0, 0
10, 38, 0, 1.711094617843628
10, 39, 0, 0.6686695218086243
10, 40, 0, 0.6909924149513245
10, 41, 0, 0.6992607116699219
10, 42, 0, 0.3498664796352386
10, 43, 0, 0
10, 44, 0, 0.3168903589248657
10, 45, 0, 0.6341643333435059
10, 46, 0, 0
10, 47, 0, 0
10, 48, 0, 0
10, 49, 0, 0.3437926471233368
11, 0, 0, 0.6142382025718689
11, 1, 0, 0.3260781764984131
11, 2, 0, 0.330815464258194
11, 3, 0, 0
11, 4, 0, 0
11, 5, 0, 0.6582726836204529
11, 6, 0, 0
11, 7, 0, 0.3390617966651917
11, 8, 0, 0.705106794834137
11, 9, 0, 0.9913102984428406
11, 10, 0, 0.3107765316963196
11, 11, 0, 0
11, 12, 0, 0
11, 13, 0, 0
11, 14, 0, 0
11, 15, 0, 0.2965161204338074
11, 16, 0, 0.3014661371707916
11, 17, 0, 0.9700888991355896
11, 18, 0, 0.343260645866394
11, 19, 0, 0
11, 20, 0, 1.01111900806427
11, 21, 0, 0
11, 22, 0, 0
11, 23, 0, 0
11, 24, 0, 0.6950874328613281
11, 25, 0, 0.3301313519477844
11, 26, 0, 0
11, 27, 0, 0.6481510400772095
11, 28, 0, 0.9908320903778076
11, 29, 0, 0
11, 30, 0, 0.3115164935588837
11, 31, 0, 0
11, 32, 0, 0.9824883937835693
11, 33, 0, 1.028489708900452
11, 34, 0, 0.3635069131851196
11, 35, 0, 0.3130292594432831
11, 36, 0, 0
11, 37, 0, 0
11, 38, 0, 0.9843432903289795
11, 39, 0, 0.317286491394043
11, 40, 0, 0.3552136719226837
11, 41, 0, 0
11, 42, 0, 0.7013617157936096
11, 43, 0, 1.003968477249146
11, 44, 0, 0.6485937833786011
11, 45, 0, 0.302090972661972
11, 46, 0, 0.9158931374549866
11, 47, 0, 0.3415834605693817
11, 48, 0, 0
11, 49, 0, 1.000306129455566
12, 0, 0, 0.956606924533844
12, 1, 0, 0
12, 2, 0, 0.3206217586994171
12, 3, 0, 0.3194835782051086
12, 4, 0, 0
12, 5, 0, 0.3577215671539307
12, 6, 0, 0.6985018849372864
12, 7, 0, 0.6467610001564026
12, 8, 0, 0
12, 9, 0, 0.3315293490886688
12, 10, 0, 0
12, 11, 0, 1.00535774230957
12, 12, 0, 0.976054310798645
12, 13, 0, 0
12, 14, 0, 0.6690852046012878
12, 15, 0, 0.6328450441360474
12, 16, 0, 0.7049146890640259
12, 17, 0, 0.3089923858642578
12, 18, 0, 0
12, 19, 0, 0
12, 20, 0, 0
12, 21, 0, 0.6302877068519592
12, 22, 0, 0.3028610348701477
12, 23, 0, 0.3443045616149902
12, 24, 0, 0.3516877293586731
12, 25, 0, 0.3296749591827393
12, 26, 0, 0.337588757276535
12, 27, 0, 0
12, 28, 0, 0.6428777575492859
12, 29, 0, 0.3355980217456818
12, 30, 0, 0.3233126997947693
12, 31, 0, 0.6896340847015381
12, 32, 0, 1.300403237342834
12, 33, 0, 0.297148734331131
12, 34, 0, 1.669224381446838
12, 35, 0, 0.3410823345184326
12, 36, 0, 0.9486263990402222
12, 37, 0, 0
12, 38, 0, 0.6516690254211426
12, 39, 0, 0.3321979343891144
12, 40, 0, 0.3172466456890106
12, 41, 0, 0.678239643573761
12, 42, 0, 1.27726137638092
12, 43, 0, 0.2952320575714111
12, 44, 0, 0.3063554465770721
12, 45, 0, 0
12, 46, 0, 0.6951307654380798
12, 47, 0, 0.3404243886470795
12, 48, 0, 0.6629947423934937
12, 49, 0, 0
13, 0, 0, 0
13, 1, 0, 0
13, 2, 0, 0
13, 3, 0, 0
13, 4, 0, 0.6648412346839905
13, 5, 0, 0
13, 6, 0, 0.3227937519550323
13, 7, 0, 0.6683708429336548
13, 8, 0, 0.9673163890838623
13, 9, 0, 1.004328846931458
13, 10, 0, 0.3308586776256561
13, 11, 0, 0
13, 12, 0, 0.303811639547348
13, 13, 0, 0.6435804963111877
13, 14, 0, 0.3359860181808472
13, 15, 0, 0.6444226503372192
13, 16, 0, 0.9669375419616699
13, 17, 0, 0
13, 18, 0, 0.3251869082450867
13, 19, 0, 1.268508791923523
13, 20, 0, 0.3539485335350037
13, 21, 0, 0
13, 22, 0, 0.3038158714771271
13, 23, 0, 0.6739735007286072
13, 24, 0, 0
13, 25, 0, 0.3062021136283875
13, 26, 0, 1.00186026096344
13, 27, 0, 0.6305280327796936
13, 28, 0, 0
13, 29, 0, 0.6467756628990173
13, 30, 0, 0
13, 31, 0, 0
13, 32, 0, 0.9540120959281921
13, 33, 0, 0.329065203666687
13, 34, 0, 1.005346894264221
13, 35, 0, 0.2874275743961334
13, 36, 0, 0.3353612124919891
13, 37, 0, 0.3197252452373505
13, 38, 0, 0.3358159363269806
13, 39, 0, 0
13, 40, 0, 0.298605740070343
13, 41, 0, 0.6354149580001831
13, 42, 0, 0.9118068814277649
13, 43, 0, 0
13, 44, 0, 0.3491885364055634
13, 45, 0, 0.302033394575119
13, 46, 0, 0.6321322321891785
13, 47, 0, 0.3315357565879822
13, 48, 0, 0.3467825949192047
13, 49, 0, 0
14, 0, 0, 0.3357618153095245
14, 1, 0, 0
14, 2, 0, 0
14, 3, 0, 0.9558761715888977
14, 4, 0, 0.9964413642883301
14, 5, 0, 0.3155115246772766
14, 6, 0, 0.6300217509269714
14, 7, 0, 0.3102733194828033
14, 8, 0, 0.3293657898902893
14, 9, 0, 0.6236094236373901
14, 10, 0, 0.9644029140472412
14, 11, 0, 0.616750180721283
14, 12, 0, 0
14, 13, 0, 0.3288759887218475
14, 14, 0, 0.320033460855484
14, 15, 0, 0
14, 16, 0, 0.290319412946701
14, 17, 0, 0.6271756887435913
14, 18, 0, 0
14, 19, 0, 0.679501473903656
14, 20, 0, 0
14, 21, 0, 0
14, 22, 0, 0.2750819623470306
14, 23, 0, 0
14, 24, 0, 1.927568316459656
14, 25, 0, 0
14, 26, 0, 0.6291237473487854
14, 27, 0, 0.6314425468444824
14, 28, 0, 0.2938964068889618
14, 29, 0, 0.6681379079818726
14, 30, 0, 0
14, 31, 0, 0.7109923362731934
14, 32, 0, 0.3392067551612854
14, 33, 0, 0.3010964393615723
14, 34, 0, 0.3185881078243256
14, 35, 0, 0.3303798735141754
14, 36, 0, 0.6573437452316284
14, 37, 0, 0.3148496747016907
14, 38, 0, 0.3097248673439026
14, 39, 0, 0.6618859171867371
14, 40, 0, 0
14, 41, 0, 0.3267759382724762
14, 42, 0, 0
14, 43, 0, 0.9525966048240662
14, 44, 0, 0
14, 45, 0, 0
14, 46, 0, 0.6645627021789551
14, 47, 0, 0.6409299373626709
14, 48, 0, 0
14, 49, 0, 0.2942184805870056
15, 0, 0, 0
15, 1, 0, 0
15, 2, 0, 0
15, 3, 0, 0.3156344890594482
15, 4, 0, 0.6624571681022644
15, 5, 0, 1.299497485160828
15, 6, 0, 0.3659393191337585
15, 7, 0, 0
15, 8, 0, 0.9103196859359741
15, 9, 0, 0.9528415203094482
15, 10, 0, 0.3275209665298462
15, 11, 0, 0
15, 12, 0, 0.3387885987758636
15, 13, 0, 0.6193623542785645
15, 14, 0, 0.3600835502147675
15, 15, 0, 0.6218482851982117
15, 16, 0, 0
15, 17, 0, 0.3232075273990631
15, 18, 0, 0.6376559138298035
15, 19, 0, 0
15, 20, 0, 1.324775576591492
15, 21, 0, 0.9404679536819458
15, 22, 0, 0
15, 23, 0, 0.306816577911377
15, 24, 0, 1.257391095161438
15, 25, 0, 0.2956722676753998
15, 26, 0, 0.677944540977478
15, 27, 0, 0.955476701259613
15, 28, 0, 1.000668406486511
15, 29, 0, 0
15, 30, 0, 0.3032874763011932
15, 31, 0, 0.3464270532131195
15, 32, 0, 0.688315749168396
15, 33, 0, 0
15, 34, 0, 0
15, 35, 0, 0.2958569824695587
15, 36, 0, 0.3081252574920654
15, 37, 0, 0.307851642370224
15, 38, 0, 0.7020239233970642
15, 39, 0, 0
15, 40, 0, 0
15, 41, 0, 0.5892153978347778
15, 42, 0, 0.3168059289455414
15, 43, 0, 0.9765381813049316
15, 44, 0, 0.6511437296867371
15, 45, 0, 0.3440574705600739
15, 46, 0, 0.3167445659637451
15, 47, 0, 0.7103279829025269
15, 48, 0, 0.6654570698738098
15, 49, 0, 0.6290250420570374
16, 0, 0, 0
16, 1, 0, 0.3560208976268768
16, 2, 0, 0
16, 3, 0, 0.3264709115028381
16, 4, 0, 0.3155897259712219
16, 5, 0, 0.6698900461196899
16, 6, 0, 0
16, 7, 0, 1.250367045402527
16, 8, 0, 0
16, 9, 0, 1.300946474075317
16, 10, 0, 0.6345865726470947
16, 11, 0, 0
16, 12, 0, 0.3237063884735107
16, 13, 0, 0.3247469365596771
16, 14, 0, 0.3297947347164154
16, 15, 0, 0
16, 16, 0, 0
16, 17, 0, 0.2974195182323456
16, 18, 0, 0
16, 19, 0, 0
16, 20, 0, 0.3315028548240662
16, 21, 0, 0
16, 22, 0, 0.3501005470752716
16, 23, 0, 0
16, 24, 0, 0.6228649020195007
16, 25, 0, 0.6669060587882996
16, 26, 0, 0
16, 27, 0, 0.2869293987751007
16, 28, 0, 1.600075602531433
16, 29, 0, 1.344002246856689
16, 30, 0, 0.3242404758930206
16, 31, 0, 0.6416926980018616
16, 32, 0, 0
16, 33, 0, 0.3601495921611786
16, 34, 0, 0
16, 35, 0, 0
16, 36, 0, 0
16, 37, 0, 0
16, 38, 0, 0.6500613689422607
16, 39, 0, 0
16, 40, 0, 0
16, 41, 0, 0.6676427721977234
16, 42, 0, 0
16, 43, 0, 0.3422648310661316
16, 44, 0, 0.6519414782524109
16, 45, 0, 1.011013746261597
16, 46, 0, 1.323311448097229
16, 47, 0, 0.3244858384132385
16, 48, 0, 0
16, 49, 0, 0
17, 0, 0, 0
17, 1, 0, 0.6685526967048645
17, 2, 0, 0
17, 3, 0, 0.3188020288944244
17, 4, 0, 0
17, 5, 0, 0.3390093743801117
17, 6, 0, 0.6949418783187866
17, 7, 0, 0.680798351764679
17, 8, 0, 1.282637476921082
17, 9, 0, 0
17, 10, 0, 0.3384353518486023
17, 11, 0, 0
17, 12, 0, 0
17, 13, 0, 0.985380232334137
17, 14, 0, 0.6407635807991028
17, 15, 0, 0.9353844523429871
17, 16, 0, 0
17, 17, 0, 0.3210825026035309
17, 18, 0, 0.3017638325691223
17, 19, 0, 0.3425155580043793
17, 20, 0, 0
17, 21, 0, 0.2617884576320648
17, 22, 0, 0.3202246427536011
17, 23, 0, 0.3369208574295044
17, 24, 0, 0.3170717656612396
17, 25, 0, 0.3355455100536346
17, 26, 0, 0.3595296442508698
17, 27, 0, 0.6858795285224915
17, 28, 0, 0
17, 29, 0, 0.6284669637680054
17, 30, 0, 0.317897230386734
17, 31, 0, 0.6140149831771851
17, 32, 0, 0
17, 33, 0, 0.6707170009613037
17, 34, 0, 0.3220788538455963
17, 35, 0, 0.6632848381996155
17, 36, 0, 0
17, 37, 0, 0.6791815757751465
17, 38, 0, 0.6537610292434692
17, 39, 0, 0
17, 40, 0, 0
17, 41, 0, 0.9589672088623047
17, 42, 0, 0.3078683912754059
17, 43, 0, 0.6352345943450928
17, 44, 0, 0.703758180141449
17, 45, 0, 0
17, 46, 0, 0.640087902545929
17, 47, 0, 0.3631204962730408
17, 48, 0, 0.994861364364624
17, 49, 0, 0.319437563419342
18, 0, 0, 0.6509853005409241
18, 1, 0, 0.322611004114151
18, 2, 0, 0.3277755081653595
18, 3, 0, 0.3480701744556427
18, 4, 0, 0.3330775201320648
18, 5, 0, 1.027631044387817
18, 6, 0, 0.2988099455833435
18, 7, 0, 0.3487241566181183
18, 8, 0, 0.3833730220794678
18, 9, 0, 0.3210010528564453
18, 10, 0, 0.3603678941726685
18, 11, 0, 0
18, 12, 0, 0.3281064331531525
18, 13, 0, 0
18, 14, 0, 1.289990186691284
18, 15, 0, 0.6263523697853088
18, 16, 0, 0.9866133332252502
18, 17, 0, 0.6583878397941589
18, 18, 0, 1.581192135810852
18, 19, 0, 0.6432392597198486
18, 20, 0, 0.6647334098815918
18, 21, 0, 0
18, 22, 0, 0.6797410249710083
18, 23, 0, 0
18, 24, 0, 0.668634831905365
18, 25, 0, 0.3562237322330475
18, 26, 0, 0.6403370499610901
18, 27, 0, 0
18, 28, 0, 1.262758612632751
18, 29, 0, 0.6378923058509827
18, 30, 0, 0.3111326396465302
18, 31, 0, 0.635528028011322
18, 32, 0, 0.2923051416873932
18, 33, 0, 0.2765890061855316
18, 34, 0, 0.9765734672546387
18, 35, 0, 0.303311824798584
18, 36, 0, 0.3411549925804138
18, 37, 0, 0
18, 38, 0, 0
18, 39, 0, 0.3339788913726807
18, 40, 0, 0.9746402502059937
18, 41, 0, 0.3174708783626556
18, 42, 0, 0
18, 43, 0, 0.321476936340332
18, 44, 0, 0.6413430571556091
18, 45, 0, 0
18, 46, 0, 0
18, 47, 0, 0.9799418449401855
18, 48, 0, 0
18, 49, 0, 0.6501835584640503
19, 0, 0, 0.3678878247737885
19, 1, 0, 0.3175080716609955
19, 2, 0, 0.3132715821266174
19, 3, 0, 0
19, 4, 0, 0.3358758985996246
19, 5, 0, 0.3138067424297333
19, 6, 0, 0
19, 7, 0, 0.3307232260704041
19, 8, 0, 0.6754428744316101
19, 9, 0, 0.35016730427742
19, 10, 0, 0
19, 11, 0, 0.6301013231277466
19, 12, 0, 1.299374580383301
19, 13, 0, 0.6801720857620239
19, 14, 0, 0.9780522584915161
19, 15, 0, 0
19, 16, 0, 0
19, 17, 0, 0.3400274813175201
19, 18, 0, 0
19, 19, 0, 0.6440821886062622
19, 20, 0, 0.3287108242511749
19, 21, 0, 0
19, 22, 0, 0.9387015104293823
19, 23, 0, 0
19, 24, 0, 0.6374574303627014
19, 25, 0, 1.302407383918762
19, 26, 0, 0
19, 27, 0, 0.2759293019771576
19, 28, 0, 0.9761293530464172
19, 29, 0, 0
19, 30, 0, 0.9979716539382935
19, 31, 0, 0
19, 32, 0, 0.3352102637290955
19, 33, 0, 0
19, 34, 0, 1.294068455696106
19, 35, 0, 0
19, 36, 0, 0.6505507230758667
19, 37, 0, 0.3358849883079529
19, 38, 0, 0.2957415878772736
19, 39, 0, 0.3298428356647491
19, 40, 0, 0
19, 41, 0, 0.9509610533714294
19, 42, 0, 0.3671581447124481
19, 43, 0, 0.3136928975582123
19, 44, 0, 0.3259222507476807
19, 45, 0, 0
19, 46, 0, 0.3277683854103088
19, 47, 0, 0
19, 48, 0, 0.3323755860328674
19, 49, 0, 0
20, 0, 0, 0
20, 1, 0, 0
20, 2, 0, 0.3340553343296051
20, 3, 0, 0.3280570507049561
20, 4, 0, 0
20, 5, 0, 0.291523814201355
20, 6, 0, 0.342813640832901
20, 7, 0, 0.6447938680648804
20, 8, 0, 0.2956817448139191
20, 9, 0, 0
20, 10, 0, 0.3146783709526062
20, 11, 0, 0
20, 12, 0, 0
20, 13, 0, 0
20, 14, 0, 0
20, 15, 0, 0
20, 16, 0, 0
20, 17, 0, 0.3208456337451935
20, 18, 0, 1.015094637870789
20, 19, 0, 0
20, 20, 0, 0.2976669669151306
20, 21, 0, 0.2970245480537415
20, 22, 0, 0
20, 23, 0, 0
20, 24, 0, 1.438255786895752
20, 25, 0, 0
20, 26, 0, 0.7039667367935181
20, 27, 0, 0
20, 28, 0, 0.690060019493103
20, 29, 0, 0.3326769471168518
20, 30, 0, 0
20, 31, 0, 0.3448526263237
20, 32, 0, 0
20, 33, 0, 0
20, 34, 0, 0
20, 35, 0, 0.672271728515625
20, 36, 0, 0.3407331109046936
20, 37, 0, 0.6813675165176392
20, 38, 0, 0.3318003118038177
20, 39, 0, 0.3037388026714325
20, 40, 0, 0.3373515605926514
20, 41, 0, 0.3064781725406647
20, 42, 0, 0.9537772536277771
20, 43, 0, 0.6733782291412354
20, 44, 0, 0.3533104658126831
20, 45, 0, 0.6338110566139221
20, 46, 0, 1.010105967521667
20, 47, 0, 0.6693739891052246
20, 48, 0, 0.6649190187454224
20, 49, 0, 0
21, 0, 0, 0.3387786448001862
21, 1, 0, 0.3108598589897156
21, 2, 0, 0.6460278630256653
21, 3, 0, 0
21, 4, 0, 0.3247682154178619
21, 5, 0, 0.2951253652572632
21, 6, 0, 0.6607633233070374
21, 7, 0, 0.3009210824966431
21, 8, 0, 0.3276629745960236
21, 9, 0, 0.2993049025535583
21, 10, 0, 0.6531203985214233
21, 11, 0, 0.3133282065391541
21, 12, 0, 0.3440090417861938
21, 13, 0, 0
21, 14, 0, 0.2988609373569489
21, 15, 0, 0.6246176362037659
21, 16, 0, 0
21, 17, 0, 0.6667289137840271
21, 18, 0, 0.6299943923950195
21, 19, 0, 0.6485463380813599
21, 20, 0, 0.9686697125434875
21, 21, 0, 0.3018361926078796
21, 22, 0, 0.9924511909484863
21, 23, 0, 0.3233561813831329
21, 24, 0, 0.669994592666626
21, 25, 0, 0.3514396846294403
21, 26, 0, 0
21, 27, 0, 0.3249393999576569
21, 28, 0, 0.6573317050933838
21, 29, 0, 0.9286178350448608
21, 30, 0, 0
21, 31, 0, 0.3012902140617371
21, 32, 0, 0.6573589444160461
21, 33, 0, 0.6460832357406616
21, 34, 0, 0
21, 35, 0, 0.3295400142669678
21, 36, 0, 0.3363260626792908
21, 37, 0, 0.9269528388977051
21, 38, 0, 0.6349542737007141
21, 39, 0, 0.3231592774391174
21, 40, 0, 0.3381709456443787
21, 41, 0, 0.3198288679122925
21, 42, 0, 0.6264179944992065
21, 43, 0, 0.3373090028762817
21, 44, 0, 0.9939855933189392
21, 45, 0, 0.373193770647049
21, 46, 0, 0
21, 47, 0, 0.6466086506843567
21, 48, 0, 0
21, 49, 0, 0.3348734676837921
22, 0, 0, 0
22, 1, 0, 0.3293968737125397
22, 2, 0, 0.3465147316455841
22, 3, 0, 0.9617817401885986
22, 4, 0, 0.287000447511673
22, 5, 0, 1.310257315635681
22, 6, 0, 0
22, 7, 0, 0
22, 8, 0, 0.6739786267280579
22, 9, 0, 0
22, 10, 0, 0
22, 11, 0, 0.6923015713691711
22, 12, 0, 0
22, 13, 0, 0.9900649785995483
22, 14, 0, 0.600491464138031
22, 15, 0, 0
22, 16, 0, 0.3594151139259338
22, 17, 0, 0
22, 18, 0, 0.9544491767883301
22, 19, 0, 0.6102578639984131
22, 20, 0, 0.6597568392753601
22, 21, 0, 0
22, 22, 0, 0.6685513257980347
22, 23, 0, 0.327214241027832
22, 24, 0, 0.3006844818592072
22, 25, 0, 0.6758909225463867
22, 26, 0, 0
22, 27, 0, 0.5998209118843079
22, 28, 0, 0
22, 29, 0, 0.339150607585907
22, 30, 0, 0.6593871712684631
22, 31, 0, 0.6318994164466858
22, 32, 0, 0.6556804776191711
22, 33, 0, 0.3413942456245422
22, 34, 0, 0.3384049534797668
22, 35, 0, 0.7074378132820129
22, 36, 0, 0.3325209319591522
22, 37, 0, 0.3179044723510742
22, 38, 0, 0
22, 39, 0, 0.6239863634109497
22, 40, 0, 0
22, 41, 0, 0.6452733874320984
22, 42, 0, 0.3493992388248444
22, 43, 0, 0.6708484292030334
22, 44, 0, 0
22, 45, 0, 0.6892707943916321
22, 46, 0, 0.32957723736763
22, 47, 0, 1.01398754119873
22, 48, 0, 0.6409690380096436
22, 49, 0, 0
23, 0, 0, 0
23, 1, 0, 0.9605112075805664
23, 2, 0, 1.023250102996826
23, 3, 0, 0.3149838149547577
23, 4, 0, 1.572111964225769
23, 5, 0, 0
23, 6, 0, 0.3307830989360809
23, 7, 0, 0
23, 8, 0, 0.3189502954483032
23, 9, 0, 0
23, 10, 0, 0
23, 11, 0, 0.6040635108947754
23, 12, 0, 0
23, 13, 0, 0.3271759748458862
23, 14, 0, 0.6504395604133606
23, 15, 0, 0
23, 16, 0, 0
23, 17, 0, 0.6114224791526794
23, 18, 0, 0.3232214748859406
23, 19, 0, 0.2795811295509338
23, 20, 0, 0.6652827262878418
23, 21, 0, 0.3011234104633331
23, 22, 0, 0
23, 23, 0, 0.3211800158023834
23, 24, 0, 0
23, 25, 0, 0.6632819771766663
23, 26, 0, 0.3474419713020325
23, 27, 0, 0
23, 28, 0, 0.3294120728969574
23, 29, 0, 0
23, 30, 0, 0
23, 31, 0, 0.3593558967113495
23, 32, 0, 0.6566516757011414
23, 33, 0, 0
23, 34, 0, 0
23, 35, 0, 0
23, 36, 0, 0
23, 37, 0, 0.3247938752174377
23, 38, 0, 0.34553462266922
23, 39, 0, 0
23, 40, 0, 0.3296171128749847
23, 41, 0, 0.3314000964164734
23, 42, 0, 0
23, 43, 0, 0.342287003993988
23, 44, 0, 0.3211730420589447
23, 45, 0, 0.6571968793869019
23, 46, 0, 0.3259089887142181
23, 47, 0, 0.6497809886932373
23, 48, 0, 0.3459855914115906
23, 49, 0, 0.2879957556724548
24, 0, 0, 0.3420674204826355
24, 1, 0, 0.3195944726467133
24, 2, 0, 0.6379973888397217
24, 3, 0, 0.6349647641181946
24, 4, 0, 0
24, 5, 0, 0.3290780782699585
24, 6, 0, 0.9413963556289673
24, 7, 0, 0.9827314019203186
24, 8, 0, 0
24, 9, 0, 0.3094800710678101
24, 10, 0, 0.6918646693229675
24, 11, 0, 0.3506154716014862
24, 12, 0, 0.3547518849372864
24, 13, 0, 0.6670571565628052
24, 14, 0, 0
24, 15, 0, 0
24, 16, 0, 0
24, 17, 0, 1.320740222930908
24, 18, 0, 0.9689882397651672
24, 19, 0, 0
24, 20, 0, 0
24, 21, 0, 0.5816178321838379
24, 22, 0, 0
24, 23, 0, 0.9672527313232422
24, 24, 0, 0.3170245587825775
24, 25, 0, 0.9432785511016846
24, 26, 0, 0.9005579352378845
24, 27, 0, 0.3451193571090698
24, 28, 0, 0
24, 29, 0, 0
24, 30, 0, 0.9970663189888
24, 31, 0, 0
24, 32, 0, 2.176718711853027
24, 33, 0, 0.3174972534179688
24, 34, 0, 0.3484681248664856
24, 35, 0, 0
24, 36, 0, 0
24, 37, 0, 0.3180149793624878
24, 38, 0, 1.004992604255676
24, 39, 0, 0.6376238465309143
24, 40, 0, 0.3338187336921692
24, 41, 0, 0.3647569715976715
24, 42, 0, 0.3466092348098755
