# TOPAS Version: 3.7
# Parameter File: main
# Results for scorer dose
# Scored in component: Patch
# X in 50 bins of 0.0002 cm
# Y in 50 bins of 0.0002 cm
# Z in 1 bin  of 0.003 cm
# DoseToMedium ( Gy ) : Sum   
0, 0, 0, 1.877157211303711
0, 1, 0, 2.446268796920776
0, 2, 0, 0.6480675935745239
0, 3, 0, 0.9376486539840698
0, 4, 0, 1.947997570037842
0, 5, 0, 0.684316873550415
0, 6, 0, 2.262634515762329
0, 7, 0, 2.306882619857788
0, 8, 0, 2.716548204421997
0, 9, 0, 0.9833759665489197
0, 10, 0, 0.6663268208503723
0, 11, 0, 2.593026876449585
0, 12, 0, 0.6513082385063171
0, 13, 0, 1.322811961174011
0, 14, 0, 0.6689504981040955
0, 15, 0, 2.287152051925659
0, 16, 0, 1.026397466659546
0, 17, 0, 0.9657042026519775
0, 18, 0, 1.688827037811279
0, 19, 0, 1.677030920982361
0, 20, 0, 1.312012791633606
0, 21, 0, 2.242953777313232
0, 22, 0, 0.6290449500083923
0, 23, 0, 0.9474615454673767
0, 24, 0, 0.3136600852012634
0, 25, 0, 0.7199703454971313
0, 26, 0, 0.9943257570266724
0, 27, 0, 0.918303906917572
0, 28, 0, 0.334984689950943
0, 29, 0, 1.280344486236572
0, 30, 0, 2.682184934616089
0, 31, 0, 2.242233753204346
0, 32, 0, 0.9655198454856873
0, 33, 0, 0.3162727355957031
0, 34, 0, 0
0, 35, 0, 0.3219757080078125
0, 36, 0, 1.264872312545776
0, 37, 0, 1.361981511116028
0, 38, 0, 1.010590672492981
0, 39, 0, 1.618252515792847
0, 40, 0, 0.2961632013320923
0, 41, 0, 1.955773830413818
0, 42, 0, 2.142748832702637
0, 43, 0, 0.6953100562095642
0, 44, 0, 0.345686674118042
0, 45, 0, 1.236588597297668
0, 46, 0, 1.597394943237305
0, 47, 0, 1.654542565345764
0, 48, 0, 1.949932456016541
0, 49, 0, 2.247881889343262
1, 0, 0, 1.254987716674805
1, 1, 0, 1.637726426124573
1, 2, 0, 1.31377387046814
1, 3, 0, 0.326638251543045
1, 4, 0, 1.199057102203369
1, 5, 0, 2.015681982040405
1, 6, 0, 0.6242860555648804
1, 7, 0, 1.276311159133911
1, 8, 0, 1.361591815948486
1, 9, 0, 1.254160404205322
1, 10, 0, 0.682816207408905
1, 11, 0, 1.958900690078735
1, 12, 0, 0.6664228439331055
1, 13, 0, 1.370526671409607
1, 14, 0, 0.9907941222190857
1, 15, 0, 1.311357975006104
1, 16, 0, 0.9637631773948669
1, 17, 0, 1.260082244873047
1, 18, 0, 1.60725200176239
1, 19, 0, 2.242094278335571
1, 20, 0, 1.946659445762634
1, 21, 0, 1.965641498565674
1, 22, 0, 1.681040525436401
1, 23, 0, 1.242792367935181
1, 24, 0, 0.9241276979446411
1, 25, 0, 2.283549785614014
1, 26, 0, 1.34307861328125
1, 27, 0, 1.670853018760681
1, 28, 0, 0.8737058043479919
1, 29, 0, 1.53956139087677
1, 30, 0, 2.294960498809814
1, 31, 0, 0.6241146326065063
1, 32, 0, 1.710149884223938
1, 33, 0, 0.9520379304885864
1, 34, 0, 1.012385845184326
1, 35, 0, 1.19964599609375
1, 36, 0, 0.9938833713531494
1, 37, 0, 0.3287404477596283
1, 38, 0, 0.9439029693603516
1, 39, 0, 1.33349347114563
1, 40, 0, 1.645699620246887
1, 41, 0, 2.186355590820312
1, 42, 0, 0.6229143738746643
1, 43, 0, 0.3518705070018768
1, 44, 0, 1.990038514137268
1, 45, 0, 1.3122718334198
1, 46, 0, 0.3142937123775482
1, 47, 0, 0.9723184108734131
1, 48, 0, 0
1, 49, 0, 0.993013322353363
2, 0, 0, 0.9702794551849365
2, 1, 0, 2.207159996032715
2, 2, 0, 0.9878735542297363
2, 3, 0, 1.61303722858429
2, 4, 0, 1.70985746383667
2, 5, 0, 0.6254900693893433
2, 6, 0, 0.3277184963226318
2, 7, 0, 1.661379337310791
2, 8, 0, 0.9609566330909729
2, 9, 0, 0.6176142692565918
2, 10, 0, 2.207739114761353
2, 11, 0, 1.938292264938354
2, 12, 0, 1.696312546730042
2, 13, 0, 0.674831748008728
2, 14, 0, 1.320862770080566
2, 15, 0, 2.581996917724609
2, 16, 0, 1.014182090759277
2, 17, 0, 0.3598473072052002
2, 18, 0, 1.687282562255859
2, 19, 0, 2.320681571960449
2, 20, 0, 1.288920998573303
2, 21, 0, 1.557215452194214
2, 22, 0, 1.552449703216553
2, 23, 0, 0.9733673930168152
2, 24, 0, 0.8881757259368896
2, 25, 0, 1.27397096157074
2, 26, 0, 0.3734274804592133
2, 27, 0, 0
2, 28, 0, 1.298455715179443
2, 29, 0, 1.250942707061768
2, 30, 0, 0.9759922027587891
2, 31, 0, 0.6342239379882812
2, 32, 0, 0
2, 33, 0, 0.9542508721351624
2, 34, 0, 0.6683157086372375
2, 35, 0, 0.337053656578064
2, 36, 0, 0.6775863766670227
2, 37, 0, 0.6539160013198853
2, 38, 0, 1.636250257492065
2, 39, 0, 1.96391224861145
2, 40, 0, 1.683086514472961
2, 41, 0, 1.940226793289185
2, 42, 0, 0.6798988580703735
2, 43, 0, 2.306308269500732
2, 44, 0, 0.6387441158294678
2, 45, 0, 2.184692621231079
2, 46, 0, 0.3053911626338959
2, 47, 0, 1.340616941452026
2, 48, 0, 1.299810409545898
2, 49, 0, 2.248557329177856
3, 0, 0, 1.986592292785645
3, 1, 0, 1.287355899810791
3, 2, 0, 0.2949081361293793
3, 3, 0, 0.6376971006393433
3, 4, 0, 0.3443039059638977
3, 5, 0, 1.312109470367432
3, 6, 0, 1.348226070404053
3, 7, 0, 1.696769118309021
3, 8, 0, 0.956354022026062
3, 9, 0, 1.290982007980347
3, 10, 0, 0.9868769645690918
3, 11, 0, 1.285892128944397
3, 12, 0, 1.305710315704346
3, 13, 0, 1.298360466957092
3, 14, 0, 1.916828513145447
3, 15, 0, 0.9932311177253723
3, 16, 0, 1.690688133239746
3, 17, 0, 0.3189412355422974
3, 18, 0, 1.000107526779175
3, 19, 0, 1.620218515396118
3, 20, 0, 2.329875946044922
3, 21, 0, 0.9426491856575012
3, 22, 0, 0.6435472965240479
3, 23, 0, 1.697685837745667
3, 24, 0, 0.6268203854560852
3, 25, 0, 0.9403877258300781
3, 26, 0, 0.9684861302375793
3, 27, 0, 1.573397994041443
3, 28, 0, 1.313966989517212
3, 29, 0, 1.363295435905457
3, 30, 0, 0.9360901117324829
3, 31, 0, 1.351918697357178
3, 32, 0, 0.6168758869171143
3, 33, 0, 3.062812328338623
3, 34, 0, 2.284546613693237
3, 35, 0, 1.908440947532654
3, 36, 0, 0.6707489490509033
3, 37, 0, 2.494671106338501
3, 38, 0, 1.708390474319458
3, 39, 0, 2.214954853057861
3, 40, 0, 3.62340235710144
3, 41, 0, 0.9545468091964722
3, 42, 0, 1.646939396858215
3, 43, 0, 1.890655994415283
3, 44, 0, 1.876191735267639
3, 45, 0, 2.277153968811035
3, 46, 0, 1.283950805664062
3, 47, 0, 1.022784948348999
3, 48, 0, 0.981934666633606
3, 49, 0, 1.610260248184204
4, 0, 0, 2.482921123504639
4, 1, 0, 1.624207615852356
4, 2, 0, 0.6779991388320923
4, 3, 0, 2.568935394287109
4, 4, 0, 2.28162670135498
4, 5, 0, 1.651822090148926
4, 6, 0, 1.908828139305115
4, 7, 0, 2.353357791900635
4, 8, 0, 1.673173189163208
4, 9, 0, 1.644001603126526
4, 10, 0, 0.6205761432647705
4, 11, 0, 1.626466393470764
4, 12, 0, 0.9676106572151184
4, 13, 0, 2.554179430007935
4, 14, 0, 1.639364004135132
4, 15, 0, 1.281129360198975
4, 16, 0, 1.641087174415588
4, 17, 0, 2.931223392486572
4, 18, 0, 0.9846163392066956
4, 19, 0, 2.256187677383423
4, 20, 0, 1.956332683563232
4, 21, 0, 1.667571902275085
4, 22, 0, 0.9221593737602234
4, 23, 0, 1.969991564750671
4, 24, 0, 1.614076733589172
4, 25, 0, 1.987236857414246
4, 26, 0, 0.6189146041870117
4, 27, 0, 2.29741096496582
4, 28, 0, 0.336338222026825
4, 29, 0, 2.285155296325684
4, 30, 0, 0.6616756319999695
4, 31, 0, 0.8826805353164673
4, 32, 0, 1.96861743927002
4, 33, 0, 0.995732307434082
4, 34, 0, 0.9714363217353821
4, 35, 0, 1.740369319915771
4, 36, 0, 1.014501690864563
4, 37, 0, 1.675773739814758
4, 38, 0, 0.9737537503242493
4, 39, 0, 0.6145910024642944
4, 40, 0, 1.935059189796448
4, 41, 0, 0.9006022810935974
4, 42, 0, 0.6942811012268066
4, 43, 0, 0.31767737865448
4, 44, 0, 1.577325463294983
4, 45, 0, 1.028436422348022
4, 46, 0, 1.619096159934998
4, 47, 0, 0.9935600161552429
4, 48, 0, 2.257040739059448
4, 49, 0, 0.9832468032836914
5, 0, 0, 1.313115358352661
5, 1, 0, 1.276164054870605
5, 2, 0, 1.304166436195374
5, 3, 0, 1.237544059753418
5, 4, 0, 0.6324473023414612
5, 5, 0, 1.562658548355103
5, 6, 0, 1.660460114479065
5, 7, 0, 0.6634455919265747
5, 8, 0, 1.066005229949951
5, 9, 0, 1.565909504890442
5, 10, 0, 0.5975341796875
5, 11, 0, 1.678379893302917
5, 12, 0, 1.259171962738037
5, 13, 0, 1.594001173973083
5, 14, 0, 0.2831928133964539
5, 15, 0, 0.6530156135559082
5, 16, 0, 0.5890077352523804
5, 17, 0, 0.9498491287231445
5, 18, 0, 1.273298501968384
5, 19, 0, 0.6275303363800049
5, 20, 0, 2.316607475280762
5, 21, 0, 1.923920869827271
5, 22, 0, 1.641940116882324
5, 23, 0, 1.673107147216797
5, 24, 0, 1.970768690109253
5, 25, 0, 0.954364538192749
5, 26, 0, 0.6562372446060181
5, 27, 0, 0.3323508501052856
5, 28, 0, 1.610361695289612
5, 29, 0, 1.288666725158691
5, 30, 0, 1.271988391876221
5, 31, 0, 1.968553066253662
5, 32, 0, 1.011404037475586
5, 33, 0, 1.252826571464539
5, 34, 0, 0.9002285599708557
5, 35, 0, 1.257689833641052
5, 36, 0, 1.575863122940063
5, 37, 0, 0.9893785119056702
5, 38, 0, 0.6369297504425049
5, 39, 0, 2.60113000869751
5, 40, 0, 0.6767368316650391
5, 41, 0, 0.3269027173519135
5, 42, 0, 2.037174940109253
5, 43, 0, 2.326390743255615
5, 44, 0, 1.238095879554749
5, 45, 0, 1.955770373344421
5, 46, 0, 2.599728345870972
5, 47, 0, 1.596772789955139
5, 48, 0, 0.9779020547866821
5, 49, 0, 1.365923166275024
6, 0, 0, 1.611780047416687
6, 1, 0, 1.283283948898315
6, 2, 0, 1.657796740531921
6, 3, 0, 0.9252489805221558
6, 4, 0, 0.3546129763126373
6, 5, 0, 1.344235777854919
6, 6, 0, 2.28398323059082
6, 7, 0, 2.958278179168701
6, 8, 0, 1.651121020317078
6, 9, 0, 1.357017755508423
6, 10, 0, 0.9528778791427612
6, 11, 0, 1.536954283714294
6, 12, 0, 1.570351719856262
6, 13, 0, 1.963363885879517
6, 14, 0, 1.303437471389771
6, 15, 0, 1.004141330718994
6, 16, 0, 0.996696412563324
6, 17, 0, 1.278711318969727
6, 18, 0, 2.623902082443237
6, 19, 0, 0.6426028609275818
6, 20, 0, 1.905935049057007
6, 21, 0, 1.015824913978577
6, 22, 0, 0.6430667042732239
6, 23, 0, 0.314302921295166
6, 24, 0, 1.696084499359131
6, 25, 0, 1.628742933273315
6, 26, 0, 1.014616012573242
6, 27, 0, 0.6177524328231812
6, 28, 0, 1.665082335472107
6, 29, 0, 0.6132509112358093
6, 30, 0, 1.248113393783569
6, 31, 0, 1.330487966537476
6, 32, 0, 0
6, 33, 0, 1.710729598999023
6, 34, 0, 2.858053207397461
6, 35, 0, 0.3053325712680817
6, 36, 0, 2.61154317855835
6, 37, 0, 0.9599678516387939
6, 38, 0, 2.326107263565063
6, 39, 0, 1.048028945922852
6, 40, 0, 2.028056144714355
6, 41, 0, 0.6742410063743591
6, 42, 0, 1.98228907585144
6, 43, 0, 1.223240971565247
6, 44, 0, 1.966031789779663
6, 45, 0, 1.99074912071228
6, 46, 0, 1.013087511062622
6, 47, 0, 1.596185684204102
6, 48, 0, 1.33537232875824
6, 49, 0, 1.355150699615479
7, 0, 0, 1.591014623641968
7, 1, 0, 1.951110482215881
7, 2, 0, 1.664107322692871
7, 3, 0, 0.2940574586391449
7, 4, 0, 0
7, 5, 0, 2.546746730804443
7, 6, 0, 2.02781081199646
7, 7, 0, 1.969896078109741
7, 8, 0, 1.951316833496094
7, 9, 0, 2.339812517166138
7, 10, 0, 0.9612640738487244
7, 11, 0, 1.662070870399475
7, 12, 0, 0.6295323371887207
7, 13, 0, 0.8974273204803467
7, 14, 0, 1.646940946578979
7, 15, 0, 1.952549576759338
7, 16, 0, 1.603263974189758
7, 17, 0, 1.276285886764526
7, 18, 0, 0.283813089132309
7, 19, 0, 1.647985696792603
7, 20, 0, 0.9410790205001831
7, 21, 0, 0.642004132270813
7, 22, 0, 1.640076518058777
7, 23, 0, 0.6545459032058716
7, 24, 0, 0.6616010665893555
7, 25, 0, 0.969586968421936
7, 26, 0, 0.6274383068084717
7, 27, 0, 1.921896576881409
7, 28, 0, 0.6691998243331909
7, 29, 0, 1.935618162155151
7, 30, 0, 0.9501555562019348
7, 31, 0, 1.292283773422241
7, 32, 0, 2.000492095947266
7, 33, 0, 0.6928131580352783
7, 34, 0, 0.9584550261497498
7, 35, 0, 0.9000198841094971
7, 36, 0, 2.253344774246216
7, 37, 0, 0.9736533164978027
7, 38, 0, 1.953994631767273
7, 39, 0, 2.214936017990112
7, 40, 0, 0.9636597037315369
7, 41, 0, 1.375366449356079
7, 42, 0, 1.581871151924133
7, 43, 0, 0.9673558473587036
7, 44, 0, 1.610366702079773
7, 45, 0, 1.825085043907166
7, 46, 0, 0.3337938487529755
7, 47, 0, 1.700014591217041
7, 48, 0, 0.9550954699516296
7, 49, 0, 0.9463559985160828
8, 0, 0, 1.284375429153442
8, 1, 0, 1.90081262588501
8, 2, 0, 1.969062685966492
8, 3, 0, 0.6625123620033264
8, 4, 0, 0.6614037156105042
8, 5, 0, 1.285962820053101
8, 6, 0, 0.9241602420806885
8, 7, 0, 1.895114541053772
8, 8, 0, 0.6551257967948914
8, 9, 0, 1.319765210151672
8, 10, 0, 0.682644248008728
8, 11, 0, 0.5975703597068787
8, 12, 0, 2.939451217651367
8, 13, 0, 2.02009391784668
8, 14, 0, 1.637051463127136
8, 15, 0, 0.3204092085361481
8, 16, 0, 0.7043046355247498
8, 17, 0, 1.011101961135864
8, 18, 0, 3.188766479492188
8, 19, 0, 1.300484180450439
8, 20, 0, 1.291081428527832
8, 21, 0, 0.3453941941261292
8, 22, 0, 2.216094732284546
8, 23, 0, 0.6658474206924438
8, 24, 0, 1.329815268516541
8, 25, 0, 0.9297911524772644
8, 26, 0, 0.971048891544342
8, 27, 0, 0.9997678995132446
8, 28, 0, 1.338382959365845
8, 29, 0, 2.956109285354614
8, 30, 0, 1.669203281402588
8, 31, 0, 1.629101634025574
8, 32, 0, 0.6409722566604614
8, 33, 0, 1.667609333992004
8, 34, 0, 0.6585718393325806
8, 35, 0, 0.7299277782440186
8, 36, 0, 0
8, 37, 0, 1.706223726272583
8, 38, 0, 0.6947759985923767
8, 39, 0, 1.371380805969238
8, 40, 0, 1.848046064376831
8, 41, 0, 2.019679307937622
8, 42, 0, 1.557275414466858
8, 43, 0, 0.6813513040542603
8, 44, 0, 1.69127345085144
8, 45, 0, 1.938666105270386
8, 46, 0, 1.707719087600708
8, 47, 0, 0.2959624230861664
8, 48, 0, 0.9267098307609558
8, 49, 0, 1.713922739028931
9, 0, 0, 1.639314889907837
9, 1, 0, 0.9871318936347961
9, 2, 0, 2.543964385986328
9, 3, 0, 0.9964087605476379
9, 4, 0, 1.613622307777405
9, 5, 0, 2.535186052322388
9, 6, 0, 2.323785543441772
9, 7, 0, 0.6814236640930176
9, 8, 0, 0.3278643190860748
9, 9, 0, 0.6560898423194885
9, 10, 0, 0.9565241932868958
9, 11, 0, 0.657602071762085
9, 12, 0, 1.349640727043152
9, 13, 0, 0.9218503832817078
9, 14, 0, 2.930823564529419
9, 15, 0, 0.9658940434455872
9, 16, 0, 1.628724813461304
9, 17, 0, 1.001171231269836
9, 18, 0, 1.978387832641602
9, 19, 0, 1.320228457450867
9, 20, 0, 0.9841495156288147
9, 21, 0, 1.975723624229431
9, 22, 0, 1.576179027557373
9, 23, 0, 1.016788959503174
9, 24, 0, 0.3122770190238953
9, 25, 0, 2.233325004577637
9, 26, 0, 1.607216000556946
9, 27, 0, 1.381310343742371
9, 28, 0, 1.316350102424622
9, 29, 0, 1.273179054260254
9, 30, 0, 0.9952318072319031
9, 31, 0, 0.6399872303009033
9, 32, 0, 0.6178942918777466
9, 33, 0, 0.2947590351104736
9, 34, 0, 0.9270037412643433
9, 35, 0, 1.258588671684265
9, 36, 0, 0
9, 37, 0, 2.626972436904907
9, 38, 0, 1.274740815162659
9, 39, 0, 0.3505701422691345
9, 40, 0, 0.9198935627937317
9, 41, 0, 2.299423694610596
9, 42, 0, 0.9919735193252563
9, 43, 0, 1.651766061782837
9, 44, 0, 1.710864901542664
9, 45, 0, 0.638592004776001
9, 46, 0, 1.305016279220581
9, 47, 0, 1.954704403877258
9, 48, 0, 0.9453872442245483
9, 49, 0, 2.189050912857056
10, 0, 0, 0.9537023901939392
10, 1, 0, 0.9671257734298706
10, 2, 0, 1.955234885215759
10, 3, 0, 0.6376688480377197
10, 4, 0, 1.516368865966797
10, 5, 0, 1.314316153526306
10, 6, 0, 0.3479456901550293
10, 7, 0, 0.9574443101882935
10, 8, 0, 1.618407487869263
10, 9, 0, 0.6245775818824768
10, 10, 0, 0.7044739127159119
10, 11, 0, 1.733747601509094
10, 12, 0, 0.6384871006011963
10, 13, 0, 1.006244301795959
10, 14, 0, 1.31455385684967
10, 15, 0, 1.663684010505676
10, 16, 0, 0.609586238861084
10, 17, 0, 1.692419052124023
10, 18, 0, 0.9332823157310486
10, 19, 0, 1.56317675113678
10, 20, 0, 1.983028173446655
10, 21, 0, 1.578680038452148
10, 22, 0, 0.6256263256072998
10, 23, 0, 0.9489574432373047
10, 24, 0, 0.9851143360137939
10, 25, 0, 0.3465564846992493
10, 26, 0, 1.634412288665771
10, 27, 0, 0.3131236433982849
10, 28, 0, 0.991463303565979
10, 29, 0, 1.229645609855652
10, 30, 0, 0.6544511318206787
10, 31, 0, 2.398314476013184
10, 32, 0, 0.6178436279296875
10, 33, 0, 0.6845629811286926
10, 34, 0, 0.6643905639648438
10, 35, 0, 2.248566865921021
10, 36, 0, 1.553775906562805
10, 37, 0, 0.6731579899787903
10, 38, 0, 3.018127918243408
10, 39, 0, 1.305092692375183
10, 40, 0, 1.326149702072144
10, 41, 0, 1.388473153114319
10, 42, 0, 0.9720544815063477
10, 43, 0, 0.9222213625907898
10, 44, 0, 1.99352502822876
10, 45, 0, 1.308861017227173
10, 46, 0, 0.6204288005828857
10, 47, 0, 0.6546608209609985
10, 48, 0, 0.6714664101600647
10, 49, 0, 1.290637254714966
11, 0, 0, 0.9175073504447937
11, 1, 0, 1.335813760757446
11, 2, 0, 1.617020726203918
11, 3, 0, 0.9576402902603149
11, 4, 0, 0.6322648525238037
11, 5, 0, 0.9927130341529846
11, 6, 0, 0.3330690264701843
11, 7, 0, 1.59295928478241
11, 8, 0, 1.014222502708435
11, 9, 0, 1.648369789123535
11, 10, 0, 0.3107765316963196
11, 11, 0, 0.344080924987793
11, 12, 0, 1.598494529724121
11, 13, 0, 1.029427051544189
11, 14, 0, 0.6574636101722717
11, 15, 0, 1.982162356376648
11, 16, 0, 0.9461925625801086
11, 17, 0, 2.295757293701172
11, 18, 0, 1.254513740539551
11, 19, 0, 0.9050107598304749
11, 20, 0, 1.636337518692017
11, 21, 0, 0.6525418162345886
11, 22, 0, 1.309610486030579
11, 23, 0, 0.3025727272033691
11, 24, 0, 1.347336769104004
11, 25, 0, 1.020713567733765
11, 26, 0, 1.620297312736511
11, 27, 0, 1.935243964195251
11, 28, 0, 1.650180339813232
11, 29, 0, 1.958649754524231
11, 30, 0, 0.6249889731407166
11, 31, 0, 0.3446328938007355
11, 32, 0, 1.289469838142395
11, 33, 0, 2.730386018753052
11, 34, 0, 1.684306025505066
11, 35, 0, 0.9242438673973083
11, 36, 0, 0.6051151156425476
11, 37, 0, 0.9800392389297485
11, 38, 0, 1.980837345123291
11, 39, 0, 0.9509045481681824
11, 40, 0, 0.9976416826248169
11, 41, 0, 0.3088394701480865
11, 42, 0, 2.441831111907959
11, 43, 0, 1.651687264442444
11, 44, 0, 1.607436299324036
11, 45, 0, 0.302090972661972
11, 46, 0, 2.585948705673218
11, 47, 0, 0.9539338946342468
11, 48, 0, 0.9878742098808289
11, 49, 0, 2.593008279800415
12, 0, 0, 1.914411067962646
12, 1, 0, 0.2900474965572357
12, 2, 0, 2.047845125198364
12, 3, 0, 1.313883423805237
12, 4, 0, 1.009133815765381
12, 5, 0, 1.33228600025177
12, 6, 0, 1.317207455635071
12, 7, 0, 0.9620755314826965
12, 8, 0, 0.3259291052818298
12, 9, 0, 1.96053147315979
12, 10, 0, 0.9522916674613953
12, 11, 0, 1.683362722396851
12, 12, 0, 2.921354532241821
12, 13, 0, 0.9692901968955994
12, 14, 0, 1.371755838394165
12, 15, 0, 1.886398434638977
12, 16, 0, 2.293367624282837
12, 17, 0, 0.6374150514602661
12, 18, 0, 1.279952883720398
12, 19, 0, 0.9901749491691589
12, 20, 0, 0.3590999841690063
12, 21, 0, 0.9661334753036499
12, 22, 0, 0.3028610348701477
12, 23, 0, 1.353073120117188
12, 24, 0, 1.338857531547546
12, 25, 0, 1.292364954948425
12, 26, 0, 1.722820162773132
12, 27, 0, 0.6447106003761292
12, 28, 0, 1.252467513084412
12, 29, 0, 0.943537712097168
12, 30, 0, 2.645748376846313
12, 31, 0, 1.033551454544067
12, 32, 0, 1.634680151939392
12, 33, 0, 0.6304529309272766
12, 34, 0, 3.570525169372559
12, 35, 0, 1.658881902694702
12, 36, 0, 0.9486263990402222
12, 37, 0, 0.3129422664642334
12, 38, 0, 1.337767601013184
12, 39, 0, 0.6833468675613403
12, 40, 0, 1.636395454406738
12, 41, 0, 1.311627268791199
12, 42, 0, 2.81731390953064
12, 43, 0, 0.9037158489227295
12, 44, 0, 1.945088982582092
12, 45, 0, 0.3231671154499054
12, 46, 0, 0.6951307654380798
12, 47, 0, 1.637288093566895
12, 48, 0, 1.925284504890442
12, 49, 0, 0.6123767495155334
13, 0, 0, 0.9299122095108032
13, 1, 0, 1.01395857334137
13, 2, 0, 1.013123869895935
13, 3, 0, 0.6712809205055237
13, 4, 0, 1.915908217430115
13, 5, 0, 0.9790275692939758
13, 6, 0, 1.252384424209595
13, 7, 0, 1.621156334877014
13, 8, 0, 2.013606309890747
13, 9, 0, 3.229230642318726
13, 10, 0, 0.3308586776256561
13, 11, 0, 0.9791658520698547
13, 12, 0, 2.03096604347229
13, 13, 0, 1.285117506980896
13, 14, 0, 0.6520513892173767
13, 15, 0, 1.216152667999268
13, 16, 0, 1.31573748588562
13, 17, 0, 0.6372703313827515
13, 18, 0, 1.318085670471191
13, 19, 0, 2.277485847473145
13, 20, 0, 0.995024561882019
13, 21, 0, 0
13, 22, 0, 1.272881507873535
13, 23, 0, 2.299179077148438
13, 24, 0, 0.9387014508247375
13, 25, 0, 2.199679374694824
13, 26, 0, 1.973343372344971
13, 27, 0, 0.9581432938575745
13, 28, 0, 0.9509580731391907
13, 29, 0, 0.9496874213218689
13, 30, 0, 1.264354228973389
13, 31, 0, 0.6162108778953552
13, 32, 0, 1.620994091033936
13, 33, 0, 1.364703297615051
13, 34, 0, 2.932686328887939
13, 35, 0, 0.9438366889953613
13, 36, 0, 1.963578581809998
13, 37, 0, 0.651542603969574
13, 38, 0, 1.591965436935425
13, 39, 0, 1.286630630493164
13, 40, 0, 0.622204601764679
13, 41, 0, 1.582973837852478
13, 42, 0, 1.551141738891602
13, 43, 0, 0.3445461690425873
13, 44, 0, 0.658677339553833
13, 45, 0, 0.6345676183700562
13, 46, 0, 1.963003158569336
13, 47, 0, 0.3315357565879822
13, 48, 0, 1.60158908367157
13, 49, 0, 0.3283628225326538
14, 0, 0, 1.604763150215149
14, 1, 0, 1.270034670829773
14, 2, 0, 1.308382153511047
14, 3, 0, 2.241993427276611
14, 4, 0, 2.562323093414307
14, 5, 0, 1.99661386013031
14, 6, 0, 1.608356833457947
14, 7, 0, 0.9628570675849915
14, 8, 0, 1.322970032691956
14, 9, 0, 2.543890714645386
14, 10, 0, 1.952380895614624
14, 11, 0, 2.153782844543457
14, 12, 0, 0.6319618821144104
14, 13, 0, 0.6532415747642517
14, 14, 0, 1.310384750366211
14, 15, 0, 0
14, 16, 0, 0.9766848683357239
14, 17, 0, 1.953970313072205
14, 18, 0, 1.286622047424316
14, 19, 0, 2.666179895401001
14, 20, 0, 0.6576290726661682
14, 21, 0, 0.3166781961917877
14, 22, 0, 1.228851795196533
14, 23, 0, 1.245763421058655
14, 24, 0, 3.258108615875244
14, 25, 0, 1.401047825813293
14, 26, 0, 1.281413674354553
14, 27, 0, 2.290543794631958
14, 28, 0, 1.577502846717834
14, 29, 0, 1.288364887237549
14, 30, 0, 1.071312069892883
14, 31, 0, 1.705128312110901
14, 32, 0, 1.551345229148865
14, 33, 0, 1.248235940933228
14, 34, 0, 1.317260384559631
14, 35, 0, 1.590893745422363
14, 36, 0, 0.9817267060279846
14, 37, 0, 2.325634956359863
14, 38, 0, 0.9705483913421631
14, 39, 0, 1.328919768333435
14, 40, 0, 1.34354567527771
14, 41, 0, 0.3267759382724762
14, 42, 0, 0.6447966694831848
14, 43, 0, 2.556065559387207
14, 44, 0, 0.2938407957553864
14, 45, 0, 0.9721575975418091
14, 46, 0, 1.965163350105286
14, 47, 0, 1.574039340019226
14, 48, 0, 0
14, 49, 0, 1.282721281051636
15, 0, 0, 1.610093235969543
15, 1, 0, 1.275962710380554
15, 2, 0, 0.942402720451355
15, 3, 0, 1.639717221260071
15, 4, 0, 1.614326357841492
15, 5, 0, 2.267271518707275
15, 6, 0, 1.036929726600647
15, 7, 0, 0.3599344789981842
15, 8, 0, 1.889173984527588
15, 9, 0, 1.553699851036072
15, 10, 0, 0.664300262928009
15, 11, 0, 1.615793228149414
15, 12, 0, 0.6423309445381165
15, 13, 0, 1.244186878204346
15, 14, 0, 0.7138569951057434
15, 15, 0, 0.9554601311683655
15, 16, 0, 0.307140588760376
15, 17, 0, 0.3232075273990631
15, 18, 0, 2.27788233757019
15, 19, 0, 1.222372174263
15, 20, 0, 2.269501447677612
15, 21, 0, 2.958226203918457
15, 22, 0, 0.9634000658988953
15, 23, 0, 1.907175660133362
15, 24, 0, 2.16280460357666
15, 25, 0, 2.161567449569702
15, 26, 0, 1.984848380088806
15, 27, 0, 2.617947578430176
15, 28, 0, 1.677337288856506
15, 29, 0, 2.237939834594727
15, 30, 0, 1.164621472358704
15, 31, 0, 1.302366375923157
15, 32, 0, 1.036309838294983
15, 33, 0, 0.3579805493354797
15, 34, 0, 0.6731311082839966
15, 35, 0, 1.290842056274414
15, 36, 0, 0.9711100459098816
15, 37, 0, 0.6021982431411743
15, 38, 0, 2.371109485626221
15, 39, 0, 0.6171295046806335
15, 40, 0, 0
15, 41, 0, 1.218343496322632
15, 42, 0, 0.6777323484420776
15, 43, 0, 2.472309827804565
15, 44, 0, 1.62224292755127
15, 45, 0, 1.341333746910095
15, 46, 0, 0.6224212646484375
15, 47, 0, 2.293205499649048
15, 48, 0, 2.30243444442749
15, 49, 0, 0.9721792340278625
16, 0, 0, 0.3175276517868042
16, 1, 0, 0.9721623659133911
16, 2, 0, 1.622660160064697
16, 3, 0, 1.675259709358215
16, 4, 0, 0.6478102803230286
16, 5, 0, 2.381849765777588
16, 6, 0, 0.3298327028751373
16, 7, 0, 2.86393666267395
16, 8, 0, 0.6828268766403198
16, 9, 0, 1.641164779663086
16, 10, 0, 1.292782664299011
16, 11, 0, 0.3186726868152618
16, 12, 0, 0.9520918130874634
16, 13, 0, 1.319412112236023
16, 14, 0, 0.3297947347164154
16, 15, 0, 0
16, 16, 0, 1.004037737846375
16, 17, 0, 0.2974195182323456
16, 18, 0, 1.363434910774231
16, 19, 0, 0.3336818516254425
16, 20, 0, 0.9937528967857361
16, 21, 0, 0.337763637304306
16, 22, 0, 0.3501005470752716
16, 23, 0, 0.9908896088600159
16, 24, 0, 0.9107608199119568
16, 25, 0, 1.639403462409973
16, 26, 0, 0.3302592635154724
16, 27, 0, 1.8504319190979
16, 28, 0, 2.86043119430542
16, 29, 0, 2.589736461639404
16, 30, 0, 0.8859226703643799
16, 31, 0, 1.609609007835388
16, 32, 0, 2.235009908676147
16, 33, 0, 1.684506773948669
16, 34, 0, 0.3401852548122406
16, 35, 0, 0
16, 36, 0, 0.6594557762145996
16, 37, 0, 1.613303065299988
16, 38, 0, 0.9842131733894348
16, 39, 0, 0.6480686068534851
16, 40, 0, 0.334744781255722
16, 41, 0, 1.964255928993225
16, 42, 0, 0.9730491042137146
16, 43, 0, 1.289889693260193
16, 44, 0, 1.643097639083862
16, 45, 0, 1.656432509422302
16, 46, 0, 2.379687309265137
16, 47, 0, 0.6243149638175964
16, 48, 0, 0.6024996638298035
16, 49, 0, 0.6752743124961853
17, 0, 0, 0.6324924230575562
17, 1, 0, 1.304386615753174
17, 2, 0, 1.19202184677124
17, 3, 0, 0.9739316701889038
17, 4, 0, 1.29427969455719
17, 5, 0, 0.3390093743801117
17, 6, 0, 2.400737762451172
17, 7, 0, 1.674753308296204
17, 8, 0, 1.650253295898438
17, 9, 0, 1.597525715827942
17, 10, 0, 0.3384353518486023
17, 11, 0, 0.9586363434791565
17, 12, 0, 0.9259088635444641
17, 13, 0, 1.314284682273865
17, 14, 0, 1.006556272506714
17, 15, 0, 1.266070604324341
17, 16, 0, 0.9273853898048401
17, 17, 0, 0.9642078876495361
17, 18, 0, 0.6265278458595276
17, 19, 0, 1.677528738975525
17, 20, 0, 0.3259657323360443
17, 21, 0, 0.9023629426956177
17, 22, 0, 1.312510013580322
17, 23, 0, 1.6617431640625
17, 24, 0, 0.653899073600769
17, 25, 0, 1.287079453468323
17, 26, 0, 1.392365217208862
17, 27, 0, 2.015255928039551
17, 28, 0, 0.9345277547836304
17, 29, 0, 1.577498316764832
17, 30, 0, 2.223494529724121
17, 31, 0, 1.916197657585144
17, 32, 0, 0.3257154524326324
17, 33, 0, 0.6707170009613037
17, 34, 0, 1.293821573257446
17, 35, 0, 1.269987821578979
17, 36, 0, 1.235121965408325
17, 37, 0, 1.002257704734802
17, 38, 0, 1.903720736503601
17, 39, 0, 1.692912817001343
17, 40, 0, 1.661994695663452
17, 41, 0, 2.553569078445435
17, 42, 0, 1.593623280525208
17, 43, 0, 2.299652338027954
17, 44, 0, 2.293193578720093
17, 45, 0, 1.004142165184021
17, 46, 0, 1.2627192735672
17, 47, 0, 1.322208404541016
17, 48, 0, 2.592666625976562
17, 49, 0, 0.9119893908500671
18, 0, 0, 1.332493543624878
18, 1, 0, 2.580823183059692
18, 2, 0, 1.253678917884827
18, 3, 0, 0.6985591053962708
18, 4, 0, 1.288554430007935
18, 5, 0, 1.318545341491699
18, 6, 0, 0.2988099455833435
18, 7, 0, 1.302448272705078
18, 8, 0, 1.685229897499084
18, 9, 0, 0.9989639520645142
18, 10, 0, 2.695981502532959
18, 11, 0, 1.009421706199646
18, 12, 0, 1.332289576530457
18, 13, 0, 1.964687824249268
18, 14, 0, 2.906051635742188
18, 15, 0, 1.89221727848053
18, 16, 0, 1.310301065444946
18, 17, 0, 1.655900716781616
18, 18, 0, 2.224395513534546
18, 19, 0, 0.9720445871353149
18, 20, 0, 1.32411789894104
18, 21, 0, 0.5980297923088074
18, 22, 0, 1.969943881034851
18, 23, 0, 0.3394452929496765
18, 24, 0, 1.604278326034546
18, 25, 0, 2.011674165725708
18, 26, 0, 1.95146918296814
18, 27, 0, 0.6801658868789673
18, 28, 0, 1.893662214279175
18, 29, 0, 2.351777791976929
18, 30, 0, 1.305678129196167
18, 31, 0, 1.323894381523132
18, 32, 0, 0.9260017871856689
18, 33, 0, 1.257829070091248
18, 34, 0, 0.9765734672546387
18, 35, 0, 0.6207224130630493
18, 36, 0, 0.9831509590148926
18, 37, 0, 0.6377342939376831
18, 38, 0, 1.294718384742737
18, 39, 0, 0.6637675166130066
18, 40, 0, 3.04774022102356
18, 41, 0, 0.6313514113426208
18, 42, 0, 0.3286440968513489
18, 43, 0, 1.294848918914795
18, 44, 0, 0.9916603565216064
18, 45, 0, 0.6275123953819275
18, 46, 0, 0.3343624472618103
18, 47, 0, 2.285742521286011
18, 48, 0, 1.367581844329834
18, 49, 0, 2.261839628219604
19, 0, 0, 1.286588668823242
19, 1, 0, 1.007379293441772
19, 2, 0, 1.932528018951416
19, 3, 0, 0.3001661896705627
19, 4, 0, 2.595921754837036
19, 5, 0, 0.6352977752685547
19, 6, 0, 0.6607715487480164
19, 7, 0, 0.6353573203086853
19, 8, 0, 1.348413586616516
19, 9, 0, 0.6980418562889099
19, 10, 0, 1.267358779907227
19, 11, 0, 1.608641982078552
19, 12, 0, 2.007982015609741
19, 13, 0, 1.634569406509399
19, 14, 0, 0.9780522584915161
19, 15, 0, 0.2961554527282715
19, 16, 0, 0
19, 17, 0, 1.971744179725647
19, 18, 0, 0.6688182950019836
19, 19, 0, 0.9500843286514282
19, 20, 0, 2.277671813964844
19, 21, 0, 0.3077899217605591
19, 22, 0, 1.270859956741333
19, 23, 0, 0.6039904952049255
19, 24, 0, 0.9519531726837158
19, 25, 0, 1.302407383918762
19, 26, 0, 0.3167312741279602
19, 27, 0, 1.928585410118103
19, 28, 0, 1.992550015449524
19, 29, 0, 1.333230972290039
19, 30, 0, 1.316027164459229
19, 31, 0, 0.6954449415206909
19, 32, 0, 2.293340444564819
19, 33, 0, 0.6080111265182495
19, 34, 0, 1.970839381217957
19, 35, 0, 1.011852145195007
19, 36, 0, 1.618869304656982
19, 37, 0, 1.319624781608582
19, 38, 0, 1.981075406074524
19, 39, 0, 1.326810121536255
19, 40, 0, 0.6752886176109314
19, 41, 0, 1.571999907493591
19, 42, 0, 1.349329710006714
19, 43, 0, 0.9256228804588318
19, 44, 0, 0.966727077960968
19, 45, 0, 1.329871416091919
19, 46, 0, 0.9639511108398438
19, 47, 0, 0.2985240519046783
19, 48, 0, 0.9983047246932983
19, 49, 0, 0.3392722308635712
20, 0, 0, 0.6341971158981323
20, 1, 0, 1.610756874084473
20, 2, 0, 1.044779896736145
20, 3, 0, 2.017315149307251
20, 4, 0, 1.609659314155579
20, 5, 0, 1.573133230209351
20, 6, 0, 1.597797751426697
20, 7, 0, 0.9482600688934326
20, 8, 0, 0.6209911108016968
20, 9, 0, 0.9353283047676086
20, 10, 0, 2.361350536346436
20, 11, 0, 0.9496797323226929
20, 12, 0, 0.3195191323757172
20, 13, 0, 1.252732157707214
20, 14, 0, 0.31366166472435
20, 15, 0, 0.9822699427604675
20, 16, 0, 1.008944988250732
20, 17, 0, 2.035746335983276
20, 18, 0, 1.718980193138123
20, 19, 0, 1.299231171607971
20, 20, 0, 0.2976669669151306
20, 21, 0, 0.2970245480537415
20, 22, 0, 1.942622065544128
20, 23, 0, 0.3397838771343231
20, 24, 0, 2.759995222091675
20, 25, 0, 0
20, 26, 0, 1.657665252685547
20, 27, 0, 1.302725791931152
20, 28, 0, 1.055570602416992
20, 29, 0, 1.67044997215271
20, 30, 0, 1.308440208435059
20, 31, 0, 0.9777435064315796
20, 32, 0, 1.696380257606506
20, 33, 0, 0.3684461116790771
20, 34, 0, 0.9124541878700256
20, 35, 0, 2.258363723754883
20, 36, 0, 1.006542563438416
20, 37, 0, 1.363359212875366
20, 38, 0, 1.575870752334595
20, 39, 0, 0.9522844552993774
20, 40, 0, 0.9811288714408875
20, 41, 0, 1.535106182098389
20, 42, 0, 1.961806774139404
20, 43, 0, 1.339681029319763
20, 44, 0, 0.9955819845199585
20, 45, 0, 1.318081498146057
20, 46, 0, 1.661667466163635
20, 47, 0, 1.69631564617157
20, 48, 0, 1.910551905632019
20, 49, 0, 1.300966382026672
