# TOPAS Version: 3.7
# Parameter File: main
# Results for scorer dose
# Scored in component: Patch
# X in 50 bins of 0.0002 cm
# Y in 50 bins of 0.0002 cm
# Z in 1 bin  of 0.003 cm
# DoseToMedium ( Gy ) : Sum   
0, 0, 0, 2.162369012832642
0, 1, 0, 2.778367757797241
0, 2, 0, 0.6480675935745239
0, 3, 0, 1.600371599197388
0, 4, 0, 1.947997570037842
0, 5, 0, 0.684316873550415
0, 6, 0, 2.570865154266357
0, 7, 0, 3.288584232330322
0, 8, 0, 2.716548204421997
0, 9, 0, 1.63744843006134
0, 10, 0, 0.6663268208503723
0, 11, 0, 2.593026876449585
0, 12, 0, 0.6513082385063171
0, 13, 0, 1.668370246887207
0, 14, 0, 0.6689504981040955
0, 15, 0, 2.620033502578735
0, 16, 0, 1.026397466659546
0, 17, 0, 1.255954623222351
0, 18, 0, 1.688827037811279
0, 19, 0, 1.677030920982361
0, 20, 0, 1.63214647769928
0, 21, 0, 2.242953777313232
0, 22, 0, 1.296666860580444
0, 23, 0, 1.625470161437988
0, 24, 0, 0.3136600852012634
0, 25, 0, 1.041069388389587
0, 26, 0, 1.326351404190063
0, 27, 0, 1.217793941497803
0, 28, 0, 0.9622958898544312
0, 29, 0, 1.280344486236572
0, 30, 0, 3.341374397277832
0, 31, 0, 2.899378299713135
0, 32, 0, 1.311342477798462
0, 33, 0, 0.6687015891075134
0, 34, 0, 0.3147884607315063
0, 35, 0, 0.6243124008178711
0, 36, 0, 1.264872312545776
0, 37, 0, 1.677449703216553
0, 38, 0, 1.348885774612427
0, 39, 0, 1.618252515792847
0, 40, 0, 0.2961632013320923
0, 41, 0, 2.300691843032837
0, 42, 0, 2.517637014389038
0, 43, 0, 0.9925516843795776
0, 44, 0, 0.6690794229507446
0, 45, 0, 1.556634902954102
0, 46, 0, 1.933230876922607
0, 47, 0, 1.654542565345764
0, 48, 0, 1.949932456016541
0, 49, 0, 2.539632558822632
1, 0, 0, 1.53640604019165
1, 1, 0, 1.994199275970459
1, 2, 0, 1.31377387046814
1, 3, 0, 0.6761605739593506
1, 4, 0, 1.503584265708923
1, 5, 0, 2.722740411758423
1, 6, 0, 0.9381845593452454
1, 7, 0, 1.276311159133911
1, 8, 0, 1.361591815948486
1, 9, 0, 1.549472689628601
1, 10, 0, 0.682816207408905
1, 11, 0, 2.286197423934937
1, 12, 0, 0.6664228439331055
1, 13, 0, 2.014451265335083
1, 14, 0, 0.9907941222190857
1, 15, 0, 1.311357975006104
1, 16, 0, 1.269291996955872
1, 17, 0, 1.868793964385986
1, 18, 0, 2.23204493522644
1, 19, 0, 2.867013931274414
1, 20, 0, 1.946659445762634
1, 21, 0, 2.279724597930908
1, 22, 0, 1.681040525436401
1, 23, 0, 1.242792367935181
1, 24, 0, 0.9241276979446411
1, 25, 0, 2.931559085845947
1, 26, 0, 1.673134803771973
1, 27, 0, 1.670853018760681
1, 28, 0, 1.195598483085632
1, 29, 0, 1.53956139087677
1, 30, 0, 2.294960498809814
1, 31, 0, 0.6241146326065063
1, 32, 0, 1.710149884223938
1, 33, 0, 0.9520379304885864
1, 34, 0, 1.012385845184326
1, 35, 0, 1.825089335441589
1, 36, 0, 1.328162431716919
1, 37, 0, 0.6619551777839661
1, 38, 0, 2.227860450744629
1, 39, 0, 1.661336302757263
1, 40, 0, 1.949541091918945
1, 41, 0, 2.485983610153198
1, 42, 0, 0.9437298774719238
1, 43, 0, 0.3518705070018768
1, 44, 0, 2.334118604660034
1, 45, 0, 1.619866251945496
1, 46, 0, 1.289777874946594
1, 47, 0, 0.9723184108734131
1, 48, 0, 0
1, 49, 0, 0.993013322353363
2, 0, 0, 1.640679240226746
2, 1, 0, 2.207159996032715
2, 2, 0, 1.966665744781494
2, 3, 0, 1.61303722858429
2, 4, 0, 2.407781362533569
2, 5, 0, 0.6254900693893433
2, 6, 0, 0.6395196914672852
2, 7, 0, 1.977928876876831
2, 8, 0, 0.9609566330909729
2, 9, 0, 0.6176142692565918
2, 10, 0, 2.553795337677002
2, 11, 0, 2.285906553268433
2, 12, 0, 1.972203016281128
2, 13, 0, 0.674831748008728
2, 14, 0, 1.320862770080566
2, 15, 0, 2.581996917724609
2, 16, 0, 1.014182090759277
2, 17, 0, 1.01034414768219
2, 18, 0, 1.687282562255859
2, 19, 0, 2.997494220733643
2, 20, 0, 1.288920998573303
2, 21, 0, 1.865767121315002
2, 22, 0, 1.552449703216553
2, 23, 0, 1.314202070236206
2, 24, 0, 1.199651837348938
2, 25, 0, 1.27397096157074
2, 26, 0, 0.3734274804592133
2, 27, 0, 0.3159852921962738
2, 28, 0, 1.659855842590332
2, 29, 0, 1.546641230583191
2, 30, 0, 0.9759922027587891
2, 31, 0, 1.312097072601318
2, 32, 0, 0.3234913647174835
2, 33, 0, 0.9542508721351624
2, 34, 0, 0.9928684830665588
2, 35, 0, 0.9858428835868835
2, 36, 0, 0.6775863766670227
2, 37, 0, 1.344418406486511
2, 38, 0, 2.32373571395874
2, 39, 0, 1.96391224861145
2, 40, 0, 1.994597434997559
2, 41, 0, 2.221149682998657
2, 42, 0, 1.012695670127869
2, 43, 0, 2.623289346694946
2, 44, 0, 0.6387441158294678
2, 45, 0, 2.184692621231079
2, 46, 0, 0.9386048913002014
2, 47, 0, 1.340616941452026
2, 48, 0, 1.299810409545898
2, 49, 0, 2.603240013122559
3, 0, 0, 1.986592292785645
3, 1, 0, 1.632724046707153
3, 2, 0, 1.621754884719849
3, 3, 0, 0.6376971006393433
3, 4, 0, 1.301949501037598
3, 5, 0, 1.621946454048157
3, 6, 0, 1.348226070404053
3, 7, 0, 1.696769118309021
3, 8, 0, 1.609577775001526
3, 9, 0, 1.628981113433838
3, 10, 0, 1.885584354400635
3, 11, 0, 1.602014064788818
3, 12, 0, 1.656468629837036
3, 13, 0, 1.298360466957092
3, 14, 0, 2.216968536376953
3, 15, 0, 1.641386389732361
3, 16, 0, 2.049412727355957
3, 17, 0, 0.3189412355422974
3, 18, 0, 1.000107526779175
3, 19, 0, 1.620218515396118
3, 20, 0, 2.329875946044922
3, 21, 0, 0.9426491856575012
3, 22, 0, 0.9306057691574097
3, 23, 0, 1.697685837745667
3, 24, 0, 0.6268203854560852
3, 25, 0, 1.60353684425354
3, 26, 0, 0.9684861302375793
3, 27, 0, 1.573397994041443
3, 28, 0, 1.313966989517212
3, 29, 0, 1.363295435905457
3, 30, 0, 1.863978266716003
3, 31, 0, 2.037902355194092
3, 32, 0, 0.9325589537620544
3, 33, 0, 3.744297504425049
3, 34, 0, 2.603062868118286
3, 35, 0, 2.240205764770508
3, 36, 0, 1.62641441822052
3, 37, 0, 3.121568918228149
3, 38, 0, 1.708390474319458
3, 39, 0, 2.822473049163818
3, 40, 0, 3.62340235710144
3, 41, 0, 1.579456686973572
3, 42, 0, 1.984062671661377
3, 43, 0, 2.205248832702637
3, 44, 0, 1.876191735267639
3, 45, 0, 2.277153968811035
3, 46, 0, 1.283950805664062
3, 47, 0, 1.022784948348999
3, 48, 0, 0.981934666633606
3, 49, 0, 1.610260248184204
4, 0, 0, 2.797487258911133
4, 1, 0, 1.624207615852356
4, 2, 0, 0.6779991388320923
4, 3, 0, 3.186625957489014
4, 4, 0, 2.28162670135498
4, 5, 0, 1.964051604270935
4, 6, 0, 2.238867044448853
4, 7, 0, 2.353357791900635
4, 8, 0, 2.284608364105225
4, 9, 0, 1.972536563873291
4, 10, 0, 0.6205761432647705
4, 11, 0, 2.238713979721069
4, 12, 0, 1.593390822410583
4, 13, 0, 2.870438575744629
4, 14, 0, 1.639364004135132
4, 15, 0, 1.594375371932983
4, 16, 0, 1.641087174415588
4, 17, 0, 2.931223392486572
4, 18, 0, 0.9846163392066956
4, 19, 0, 2.573412179946899
4, 20, 0, 2.298026084899902
4, 21, 0, 1.667571902275085
4, 22, 0, 0.9221593737602234
4, 23, 0, 2.310561656951904
4, 24, 0, 1.614076733589172
4, 25, 0, 1.987236857414246
4, 26, 0, 0.9621812105178833
4, 27, 0, 2.29741096496582
4, 28, 0, 1.319544076919556
4, 29, 0, 2.95325756072998
4, 30, 0, 0.9918609857559204
4, 31, 0, 1.203415870666504
4, 32, 0, 1.96861743927002
4, 33, 0, 1.653428792953491
4, 34, 0, 0.9714363217353821
4, 35, 0, 2.435116052627563
4, 36, 0, 1.014501690864563
4, 37, 0, 1.675773739814758
4, 38, 0, 1.311399817466736
4, 39, 0, 0.6145910024642944
4, 40, 0, 2.242922782897949
4, 41, 0, 1.210914134979248
4, 42, 0, 0.6942811012268066
4, 43, 0, 0.6046286821365356
4, 44, 0, 1.899842858314514
4, 45, 0, 1.028436422348022
4, 46, 0, 1.619096159934998
4, 47, 0, 1.31302535533905
4, 48, 0, 2.569794416427612
4, 49, 0, 1.649134278297424
5, 0, 0, 1.629834294319153
5, 1, 0, 1.276164054870605
5, 2, 0, 1.304166436195374
5, 3, 0, 1.237544059753418
5, 4, 0, 1.325648903846741
5, 5, 0, 1.8860182762146
5, 6, 0, 1.938429951667786
5, 7, 0, 0.9966046810150146
5, 8, 0, 1.400853037834167
5, 9, 0, 2.598996639251709
5, 10, 0, 0.947540283203125
5, 11, 0, 2.377506256103516
5, 12, 0, 1.259171962738037
5, 13, 0, 1.594001173973083
5, 14, 0, 0.2831928133964539
5, 15, 0, 1.299589395523071
5, 16, 0, 0.5890077352523804
5, 17, 0, 0.9498491287231445
5, 18, 0, 1.273298501968384
5, 19, 0, 0.6275303363800049
5, 20, 0, 2.316607475280762
5, 21, 0, 2.267455339431763
5, 22, 0, 1.641940116882324
5, 23, 0, 1.974516272544861
5, 24, 0, 2.643009901046753
5, 25, 0, 0.954364538192749
5, 26, 0, 0.6562372446060181
5, 27, 0, 1.037340998649597
5, 28, 0, 1.948992490768433
5, 29, 0, 1.288666725158691
5, 30, 0, 1.271988391876221
5, 31, 0, 1.968553066253662
5, 32, 0, 1.342469692230225
5, 33, 0, 1.948911547660828
5, 34, 0, 0.9002285599708557
5, 35, 0, 1.884859681129456
5, 36, 0, 1.575863122940063
5, 37, 0, 1.327043771743774
5, 38, 0, 0.6369297504425049
5, 39, 0, 2.874775648117065
5, 40, 0, 1.000539302825928
5, 41, 0, 0.6758242845535278
5, 42, 0, 2.685435056686401
5, 43, 0, 2.326390743255615
5, 44, 0, 1.82881760597229
5, 45, 0, 1.955770373344421
5, 46, 0, 2.599728345870972
5, 47, 0, 1.596772789955139
5, 48, 0, 0.9779020547866821
5, 49, 0, 1.69830060005188
6, 0, 0, 1.611780047416687
6, 1, 0, 1.283283948898315
6, 2, 0, 1.970726609230042
6, 3, 0, 0.9252489805221558
6, 4, 0, 0.6788942217826843
6, 5, 0, 1.344235777854919
6, 6, 0, 2.60723614692688
6, 7, 0, 2.958278179168701
6, 8, 0, 2.659487724304199
6, 9, 0, 1.636821627616882
6, 10, 0, 1.633904218673706
6, 11, 0, 2.186871767044067
6, 12, 0, 1.570351719856262
6, 13, 0, 2.609318494796753
6, 14, 0, 1.303437471389771
6, 15, 0, 1.004141330718994
6, 16, 0, 0.996696412563324
6, 17, 0, 1.278711318969727
6, 18, 0, 3.300290107727051
6, 19, 0, 1.652666330337524
6, 20, 0, 1.905935049057007
6, 21, 0, 1.015824913978577
6, 22, 0, 0.6430667042732239
6, 23, 0, 0.6191162467002869
6, 24, 0, 1.696084499359131
6, 25, 0, 1.628742933273315
6, 26, 0, 1.319871187210083
6, 27, 0, 0.9145501255989075
6, 28, 0, 1.665082335472107
6, 29, 0, 0.9433855414390564
6, 30, 0, 2.237570762634277
6, 31, 0, 1.330487966537476
6, 32, 0, 0.3331707417964935
6, 33, 0, 1.710729598999023
6, 34, 0, 2.858053207397461
6, 35, 0, 0.3053325712680817
6, 36, 0, 3.242718696594238
6, 37, 0, 1.284335613250732
6, 38, 0, 2.648446321487427
6, 39, 0, 1.048028945922852
6, 40, 0, 2.028056144714355
6, 41, 0, 0.6742410063743591
6, 42, 0, 2.303620338439941
6, 43, 0, 1.223240971565247
6, 44, 0, 1.966031789779663
6, 45, 0, 1.99074912071228
6, 46, 0, 1.324363827705383
6, 47, 0, 2.238997459411621
6, 48, 0, 1.649600744247437
6, 49, 0, 1.706403136253357
7, 0, 0, 1.591014623641968
7, 1, 0, 2.264298915863037
7, 2, 0, 1.664107322692871
7, 3, 0, 1.010294318199158
7, 4, 0, 0
7, 5, 0, 2.546746730804443
7, 6, 0, 2.02781081199646
7, 7, 0, 1.969896078109741
7, 8, 0, 2.264680147171021
7, 9, 0, 2.339812517166138
7, 10, 0, 1.256712555885315
7, 11, 0, 2.00577449798584
7, 12, 0, 0.6295323371887207
7, 13, 0, 0.8974273204803467
7, 14, 0, 1.957506418228149
7, 15, 0, 1.952549576759338
7, 16, 0, 1.603263974189758
7, 17, 0, 1.276285886764526
7, 18, 0, 0.6039630174636841
7, 19, 0, 1.647985696792603
7, 20, 0, 1.220303297042847
7, 21, 0, 0.642004132270813
7, 22, 0, 1.640076518058777
7, 23, 0, 1.015336751937866
7, 24, 0, 0.9627834558486938
7, 25, 0, 0.969586968421936
7, 26, 0, 0.6274383068084717
7, 27, 0, 1.921896576881409
7, 28, 0, 0.6691998243331909
7, 29, 0, 1.935618162155151
7, 30, 0, 0.9501555562019348
7, 31, 0, 1.292283773422241
7, 32, 0, 2.000492095947266
7, 33, 0, 1.032315373420715
7, 34, 0, 0.9584550261497498
7, 35, 0, 1.600252985954285
7, 36, 0, 2.582919359207153
7, 37, 0, 0.9736533164978027
7, 38, 0, 2.317281007766724
7, 39, 0, 2.525642156600952
7, 40, 0, 0.9636597037315369
7, 41, 0, 1.375366449356079
7, 42, 0, 2.254590749740601
7, 43, 0, 0.9673558473587036
7, 44, 0, 1.610366702079773
7, 45, 0, 2.185500383377075
7, 46, 0, 0.9170714020729065
7, 47, 0, 1.700014591217041
7, 48, 0, 1.258901357650757
7, 49, 0, 1.288668513298035
8, 0, 0, 1.284375429153442
8, 1, 0, 2.549884796142578
8, 2, 0, 1.969062685966492
8, 3, 0, 0.6625123620033264
8, 4, 0, 0.6614037156105042
8, 5, 0, 1.616634130477905
8, 6, 0, 1.587385535240173
8, 7, 0, 2.204729795455933
8, 8, 0, 0.9793057441711426
8, 9, 0, 1.319765210151672
8, 10, 0, 0.682644248008728
8, 11, 0, 0.5975703597068787
8, 12, 0, 2.939451217651367
8, 13, 0, 2.02009391784668
8, 14, 0, 2.585011005401611
8, 15, 0, 0.9696826338768005
8, 16, 0, 0.7043046355247498
8, 17, 0, 1.315755844116211
8, 18, 0, 3.504771947860718
8, 19, 0, 1.300484180450439
8, 20, 0, 1.587945103645325
8, 21, 0, 0.6795670986175537
8, 22, 0, 2.564208269119263
8, 23, 0, 1.303804516792297
8, 24, 0, 1.329815268516541
8, 25, 0, 1.254676938056946
8, 26, 0, 0.971048891544342
8, 27, 0, 1.687528610229492
8, 28, 0, 1.959738373756409
8, 29, 0, 3.605484247207642
8, 30, 0, 1.978318810462952
8, 31, 0, 1.629101634025574
8, 32, 0, 0.9644935131072998
8, 33, 0, 2.003028869628906
8, 34, 0, 0.9881436824798584
8, 35, 0, 0.7299277782440186
8, 36, 0, 0.6855344176292419
8, 37, 0, 1.706223726272583
8, 38, 0, 0.6947759985923767
8, 39, 0, 1.677302598953247
8, 40, 0, 2.505892038345337
8, 41, 0, 2.019679307937622
8, 42, 0, 1.557275414466858
8, 43, 0, 0.991566002368927
8, 44, 0, 2.019085884094238
8, 45, 0, 2.547102212905884
8, 46, 0, 2.393202304840088
8, 47, 0, 0.9919520020484924
8, 48, 0, 0.9267098307609558
8, 49, 0, 1.713922739028931
9, 0, 0, 1.980252861976624
9, 1, 0, 0.9871318936347961
9, 2, 0, 2.543964385986328
9, 3, 0, 0.9964087605476379
9, 4, 0, 1.613622307777405
9, 5, 0, 2.535186052322388
9, 6, 0, 2.323785543441772
9, 7, 0, 0.6814236640930176
9, 8, 0, 0.9847727417945862
9, 9, 0, 0.9731956124305725
9, 10, 0, 1.307916522026062
9, 11, 0, 0.657602071762085
9, 12, 0, 1.658182740211487
9, 13, 0, 1.300394296646118
9, 14, 0, 3.23415470123291
9, 15, 0, 1.290941596031189
9, 16, 0, 1.906782031059265
9, 17, 0, 1.30627179145813
9, 18, 0, 1.978387832641602
9, 19, 0, 2.025607109069824
9, 20, 0, 0.9841495156288147
9, 21, 0, 2.237062931060791
9, 22, 0, 1.576179027557373
9, 23, 0, 1.016788959503174
9, 24, 0, 0.6435641646385193
9, 25, 0, 2.571937561035156
9, 26, 0, 1.607216000556946
9, 27, 0, 1.381310343742371
9, 28, 0, 1.642979979515076
9, 29, 0, 1.273179054260254
9, 30, 0, 1.31224513053894
9, 31, 0, 0.9667308926582336
9, 32, 0, 0.6178942918777466
9, 33, 0, 0.9480979442596436
9, 34, 0, 0.9270037412643433
9, 35, 0, 1.258588671684265
9, 36, 0, 0.6433883309364319
9, 37, 0, 2.963337898254395
9, 38, 0, 1.274740815162659
9, 39, 0, 0.6256632208824158
9, 40, 0, 1.241562366485596
9, 41, 0, 2.644677877426147
9, 42, 0, 0.9919735193252563
9, 43, 0, 1.651766061782837
9, 44, 0, 2.711922168731689
9, 45, 0, 0.638592004776001
9, 46, 0, 1.634934425354004
9, 47, 0, 2.604437828063965
9, 48, 0, 1.277616262435913
9, 49, 0, 3.455970764160156
10, 0, 0, 1.284831762313843
10, 1, 0, 1.600917458534241
10, 2, 0, 2.307294607162476
10, 3, 0, 0.9969717264175415
10, 4, 0, 1.516368865966797
10, 5, 0, 1.952685952186584
10, 6, 0, 0.3479456901550293
10, 7, 0, 1.622435212135315
10, 8, 0, 1.618407487869263
10, 9, 0, 1.312407970428467
10, 10, 0, 1.398431658744812
10, 11, 0, 2.033605575561523
10, 12, 0, 0.6384871006011963
10, 13, 0, 1.344716787338257
10, 14, 0, 1.642909169197083
10, 15, 0, 2.308093309402466
10, 16, 0, 0.9493570923805237
10, 17, 0, 1.692419052124023
10, 18, 0, 0.9332823157310486
10, 19, 0, 1.886540293693542
10, 20, 0, 1.983028173446655
10, 21, 0, 1.895146489143372
10, 22, 0, 0.9430508613586426
10, 23, 0, 1.957277297973633
10, 24, 0, 0.9851143360137939
10, 25, 0, 0.9852999448776245
10, 26, 0, 1.947534799575806
10, 27, 0, 0.6820968389511108
10, 28, 0, 0.991463303565979
10, 29, 0, 1.574102401733398
10, 30, 0, 0.6544511318206787
10, 31, 0, 3.362987279891968
10, 32, 0, 0.9624983072280884
10, 33, 0, 0.6845629811286926
10, 34, 0, 0.6643905639648438
10, 35, 0, 2.894062519073486
10, 36, 0, 1.894540190696716
10, 37, 0, 1.030059218406677
10, 38, 0, 3.018127918243408
10, 39, 0, 1.628043055534363
10, 40, 0, 1.658336758613586
10, 41, 0, 1.388473153114319
10, 42, 0, 1.266542434692383
10, 43, 0, 1.582469820976257
10, 44, 0, 2.298635721206665
10, 45, 0, 1.642316341400146
10, 46, 0, 0.6204288005828857
10, 47, 0, 1.254830718040466
10, 48, 0, 0.6714664101600647
10, 49, 0, 1.290637254714966
11, 0, 0, 1.561882376670837
11, 1, 0, 2.00568413734436
11, 2, 0, 1.617020726203918
11, 3, 0, 1.269661426544189
11, 4, 0, 0.6322648525238037
11, 5, 0, 1.30785346031189
11, 6, 0, 0.6430596709251404
11, 7, 0, 1.967070341110229
11, 8, 0, 1.662034153938293
11, 9, 0, 1.967176079750061
11, 10, 0, 0.6389390230178833
11, 11, 0, 0.344080924987793
11, 12, 0, 1.598494529724121
11, 13, 0, 1.029427051544189
11, 14, 0, 1.646352887153625
11, 15, 0, 2.298439264297485
11, 16, 0, 1.602385759353638
11, 17, 0, 2.295757293701172
11, 18, 0, 1.254513740539551
11, 19, 0, 1.225417017936707
11, 20, 0, 1.636337518692017
11, 21, 0, 1.282868385314941
11, 22, 0, 2.012240409851074
11, 23, 0, 0.3025727272033691
11, 24, 0, 1.347336769104004
11, 25, 0, 1.687048196792603
11, 26, 0, 2.30280065536499
11, 27, 0, 2.270382642745972
11, 28, 0, 1.650180339813232
11, 29, 0, 1.958649754524231
11, 30, 0, 0.6249889731407166
11, 31, 0, 0.6573360562324524
11, 32, 0, 1.289469838142395
11, 33, 0, 3.379846811294556
11, 34, 0, 2.005078792572021
11, 35, 0, 1.251195907592773
11, 36, 0, 1.5307776927948
11, 37, 0, 1.679767370223999
11, 38, 0, 1.980837345123291
11, 39, 0, 0.9509045481681824
11, 40, 0, 0.9976416826248169
11, 41, 0, 0.6340738534927368
11, 42, 0, 2.77639627456665
11, 43, 0, 1.651687264442444
11, 44, 0, 1.929597616195679
11, 45, 0, 0.6461396813392639
11, 46, 0, 2.917028427124023
11, 47, 0, 1.286473870277405
11, 48, 0, 0.9878742098808289
11, 49, 0, 2.9023597240448
12, 0, 0, 2.583432912826538
12, 1, 0, 0.2900474965572357
12, 2, 0, 2.377758502960205
12, 3, 0, 1.313883423805237
12, 4, 0, 1.009133815765381
12, 5, 0, 2.024687528610229
12, 6, 0, 1.965936779975891
12, 7, 0, 0.9620755314826965
12, 8, 0, 0.3259291052818298
12, 9, 0, 2.667525768280029
12, 10, 0, 1.614547610282898
12, 11, 0, 2.006534814834595
12, 12, 0, 2.921354532241821
12, 13, 0, 0.9692901968955994
12, 14, 0, 1.714370608329773
12, 15, 0, 2.531123876571655
12, 16, 0, 2.293367624282837
12, 17, 0, 1.285613179206848
12, 18, 0, 1.918104767799377
12, 19, 0, 1.586751341819763
12, 20, 0, 0.695966899394989
12, 21, 0, 0.9661334753036499
12, 22, 0, 0.3028610348701477
12, 23, 0, 1.662938952445984
12, 24, 0, 1.338857531547546
12, 25, 0, 1.292364954948425
12, 26, 0, 2.047797203063965
12, 27, 0, 0.9530665278434753
12, 28, 0, 1.252467513084412
12, 29, 0, 0.943537712097168
12, 30, 0, 2.959098815917969
12, 31, 0, 1.357536315917969
12, 32, 0, 1.634680151939392
12, 33, 0, 0.9416026473045349
12, 34, 0, 3.889613151550293
12, 35, 0, 1.973990082740784
12, 36, 0, 1.278326392173767
12, 37, 0, 0.3129422664642334
12, 38, 0, 1.651469707489014
12, 39, 0, 0.6833468675613403
12, 40, 0, 1.636395454406738
12, 41, 0, 1.955345153808594
12, 42, 0, 2.81731390953064
12, 43, 0, 0.9037158489227295
12, 44, 0, 2.597315549850464
12, 45, 0, 0.9734317064285278
12, 46, 0, 0.6951307654380798
12, 47, 0, 1.637288093566895
12, 48, 0, 2.22999382019043
12, 49, 0, 1.199174761772156
13, 0, 0, 1.23052990436554
13, 1, 0, 1.658563852310181
13, 2, 0, 1.013123869895935
13, 3, 0, 0.6712809205055237
13, 4, 0, 2.847275257110596
13, 5, 0, 0.9790275692939758
13, 6, 0, 1.567742347717285
13, 7, 0, 1.931733012199402
13, 8, 0, 2.679725408554077
13, 9, 0, 3.585015535354614
13, 10, 0, 0.657534658908844
13, 11, 0, 0.9791658520698547
13, 12, 0, 2.03096604347229
13, 13, 0, 1.285117506980896
13, 14, 0, 0.6520513892173767
13, 15, 0, 1.216152667999268
13, 16, 0, 1.647265553474426
13, 17, 0, 0.9799635410308838
13, 18, 0, 1.318085670471191
13, 19, 0, 2.277485847473145
13, 20, 0, 0.995024561882019
13, 21, 0, 0.3477585017681122
13, 22, 0, 1.628490090370178
13, 23, 0, 2.645342111587524
13, 24, 0, 1.273280501365662
13, 25, 0, 2.199679374694824
13, 26, 0, 2.268454313278198
13, 27, 0, 0.9581432938575745
13, 28, 0, 1.255901575088501
13, 29, 0, 1.273119330406189
13, 30, 0, 1.906040191650391
13, 31, 0, 0.6162108778953552
13, 32, 0, 1.926913976669312
13, 33, 0, 1.364703297615051
13, 34, 0, 3.65683388710022
13, 35, 0, 1.235867619514465
13, 36, 0, 2.276060581207275
13, 37, 0, 0.9972563982009888
13, 38, 0, 1.591965436935425
13, 39, 0, 1.286630630493164
13, 40, 0, 0.9563144445419312
13, 41, 0, 1.903944253921509
13, 42, 0, 1.551141738891602
13, 43, 0, 0.3445461690425873
13, 44, 0, 1.320066571235657
13, 45, 0, 0.6345676183700562
13, 46, 0, 1.963003158569336
13, 47, 0, 0.3315357565879822
13, 48, 0, 2.537736654281616
13, 49, 0, 0.6514203548431396
14, 0, 0, 1.604763150215149
14, 1, 0, 1.270034670829773
14, 2, 0, 1.974416494369507
14, 3, 0, 2.535622835159302
14, 4, 0, 3.226913452148438
14, 5, 0, 1.99661386013031
14, 6, 0, 1.608356833457947
14, 7, 0, 1.272433757781982
14, 8, 0, 1.322970032691956
14, 9, 0, 2.860657215118408
14, 10, 0, 1.952380895614624
14, 11, 0, 2.84758734703064
14, 12, 0, 0.9836028814315796
14, 13, 0, 0.6532415747642517
14, 14, 0, 1.310384750366211
14, 15, 0, 0.3151811957359314
14, 16, 0, 0.9766848683357239
14, 17, 0, 1.953970313072205
14, 18, 0, 2.265259027481079
14, 19, 0, 2.966078758239746
14, 20, 0, 1.353991508483887
14, 21, 0, 0.6890448927879333
14, 22, 0, 1.569539308547974
14, 23, 0, 1.562418937683105
14, 24, 0, 3.594208240509033
14, 25, 0, 1.730474352836609
14, 26, 0, 1.281413674354553
14, 27, 0, 2.621763467788696
14, 28, 0, 1.883830666542053
14, 29, 0, 1.612833380699158
14, 30, 0, 2.100444793701172
14, 31, 0, 2.383995771408081
14, 32, 0, 1.892335295677185
14, 33, 0, 1.248235940933228
14, 34, 0, 1.317260384559631
14, 35, 0, 1.590893745422363
14, 36, 0, 0.9817267060279846
14, 37, 0, 2.325634956359863
14, 38, 0, 1.287765502929688
14, 39, 0, 1.973521828651428
14, 40, 0, 1.34354567527771
14, 41, 0, 1.006594657897949
14, 42, 0, 0.6447966694831848
14, 43, 0, 2.556065559387207
14, 44, 0, 0.2938407957553864
14, 45, 0, 1.301661252975464
14, 46, 0, 2.300183534622192
14, 47, 0, 1.890751600265503
14, 48, 0, 0.6535017490386963
14, 49, 0, 1.889478445053101
15, 0, 0, 2.311648607254028
15, 1, 0, 1.621456503868103
15, 2, 0, 0.942402720451355
15, 3, 0, 1.965649008750916
15, 4, 0, 1.968926668167114
15, 5, 0, 2.267271518707275
15, 6, 0, 1.356865286827087
15, 7, 0, 0.3599344789981842
15, 8, 0, 1.889173984527588
15, 9, 0, 1.83624005317688
15, 10, 0, 0.9799085259437561
15, 11, 0, 1.937596797943115
15, 12, 0, 1.292617559432983
15, 13, 0, 1.91536819934845
15, 14, 0, 0.7138569951057434
15, 15, 0, 0.9554601311683655
15, 16, 0, 0.307140588760376
15, 17, 0, 0.3232075273990631
15, 18, 0, 2.62666916847229
15, 19, 0, 1.222372174263
15, 20, 0, 2.583571910858154
15, 21, 0, 3.291861772537231
15, 22, 0, 1.923358798027039
15, 23, 0, 1.907175660133362
15, 24, 0, 2.508627891540527
15, 25, 0, 2.161567449569702
15, 26, 0, 2.344963312149048
15, 27, 0, 2.617947578430176
15, 28, 0, 1.677337288856506
15, 29, 0, 2.881533861160278
15, 30, 0, 1.484211444854736
15, 31, 0, 1.302366375923157
15, 32, 0, 1.367165327072144
15, 33, 0, 0.3579805493354797
15, 34, 0, 0.6731311082839966
15, 35, 0, 1.611300230026245
15, 36, 0, 0.9711100459098816
15, 37, 0, 0.6021982431411743
15, 38, 0, 2.696773052215576
15, 39, 0, 0.6171295046806335
15, 40, 0, 0.3086234331130981
15, 41, 0, 1.218343496322632
15, 42, 0, 0.6777323484420776
15, 43, 0, 2.472309827804565
15, 44, 0, 1.964676976203918
15, 45, 0, 1.341333746910095
15, 46, 0, 1.278042078018188
15, 47, 0, 2.607807636260986
15, 48, 0, 2.615999460220337
15, 49, 0, 1.596300482749939
16, 0, 0, 0.3175276517868042
16, 1, 0, 1.292188763618469
16, 2, 0, 1.622660160064697
16, 3, 0, 2.009042739868164
16, 4, 0, 1.655678033828735
16, 5, 0, 2.381849765777588
16, 6, 0, 0.9561052918434143
16, 7, 0, 2.86393666267395
16, 8, 0, 0.9871852993965149
16, 9, 0, 1.978961944580078
16, 10, 0, 1.628134846687317
16, 11, 0, 0.6291810274124146
16, 12, 0, 1.27250611782074
16, 13, 0, 1.319412112236023
16, 14, 0, 0.6532248854637146
16, 15, 0, 0
16, 16, 0, 1.325892806053162
16, 17, 0, 1.228570699691772
16, 18, 0, 1.685278296470642
16, 19, 0, 0.3336818516254425
16, 20, 0, 0.9937528967857361
16, 21, 0, 0.337763637304306
16, 22, 0, 0.3501005470752716
16, 23, 0, 0.9908896088600159
16, 24, 0, 1.234013319015503
16, 25, 0, 1.639403462409973
16, 26, 0, 0.3302592635154724
16, 27, 0, 1.8504319190979
16, 28, 0, 3.189196586608887
16, 29, 0, 3.179977416992188
16, 30, 0, 0.8859226703643799
16, 31, 0, 1.609609007835388
16, 32, 0, 2.552661418914795
16, 33, 0, 1.684506773948669
16, 34, 0, 0.3401852548122406
16, 35, 0, 0
16, 36, 0, 0.9783583879470825
16, 37, 0, 1.936255693435669
16, 38, 0, 1.668869495391846
16, 39, 0, 0.6480686068534851
16, 40, 0, 0.334744781255722
16, 41, 0, 1.964255928993225
16, 42, 0, 0.9730491042137146
16, 43, 0, 1.622540950775146
16, 44, 0, 1.998110413551331
16, 45, 0, 1.656432509422302
16, 46, 0, 2.379687309265137
16, 47, 0, 0.6243149638175964
16, 48, 0, 0.6024996638298035
16, 49, 0, 0.6752743124961853
17, 0, 0, 1.965758204460144
17, 1, 0, 2.280012607574463
17, 2, 0, 1.500375390052795
17, 3, 0, 0.9739316701889038
17, 4, 0, 1.29427969455719
17, 5, 0, 0.3390093743801117
17, 6, 0, 2.743157148361206
17, 7, 0, 1.674753308296204
17, 8, 0, 2.024471759796143
17, 9, 0, 1.920204639434814
17, 10, 0, 0.6732913255691528
17, 11, 0, 1.628769993782043
17, 12, 0, 1.553635358810425
17, 13, 0, 1.62963879108429
17, 14, 0, 1.006556272506714
17, 15, 0, 1.266070604324341
17, 16, 0, 0.9273853898048401
17, 17, 0, 0.9642078876495361
17, 18, 0, 1.603937029838562
17, 19, 0, 1.990144491195679
17, 20, 0, 0.6459209322929382
17, 21, 0, 0.9023629426956177
17, 22, 0, 1.663622379302979
17, 23, 0, 1.995223999023438
17, 24, 0, 0.9655214548110962
17, 25, 0, 1.575068593025208
17, 26, 0, 2.014245271682739
17, 27, 0, 2.015255928039551
17, 28, 0, 0.9345277547836304
17, 29, 0, 1.908673882484436
17, 30, 0, 2.223494529724121
17, 31, 0, 1.916197657585144
17, 32, 0, 0.6683781743049622
17, 33, 0, 0.6707170009613037
17, 34, 0, 2.307392835617065
17, 35, 0, 1.925510287284851
17, 36, 0, 1.534066319465637
17, 37, 0, 1.342182993888855
17, 38, 0, 1.903720736503601
17, 39, 0, 2.020910263061523
17, 40, 0, 2.312629461288452
17, 41, 0, 2.838167190551758
17, 42, 0, 1.593623280525208
17, 43, 0, 2.633391618728638
17, 44, 0, 2.635495901107788
17, 45, 0, 1.004142165184021
17, 46, 0, 1.913333296775818
17, 47, 0, 1.666123270988464
17, 48, 0, 2.897095441818237
17, 49, 0, 1.556459069252014
18, 0, 0, 1.332493543624878
18, 1, 0, 2.580823183059692
18, 2, 0, 1.579067587852478
18, 3, 0, 0.6985591053962708
18, 4, 0, 1.288554430007935
18, 5, 0, 1.665802121162415
18, 6, 0, 0.2988099455833435
18, 7, 0, 1.962609171867371
18, 8, 0, 1.984809041023254
18, 9, 0, 1.310354709625244
18, 10, 0, 3.018318891525269
18, 11, 0, 1.34786069393158
18, 12, 0, 1.685036540031433
18, 13, 0, 2.9981849193573
18, 14, 0, 3.279845237731934
18, 15, 0, 1.89221727848053
18, 16, 0, 1.648930311203003
18, 17, 0, 1.655900716781616
18, 18, 0, 2.224395513534546
18, 19, 0, 0.9720445871353149
18, 20, 0, 1.687830686569214
18, 21, 0, 0.5980297923088074
18, 22, 0, 2.293378353118896
18, 23, 0, 0.3394452929496765
18, 24, 0, 2.594462394714355
18, 25, 0, 2.011674165725708
18, 26, 0, 2.263103723526001
18, 27, 0, 0.6801658868789673
18, 28, 0, 2.54080867767334
18, 29, 0, 2.688215494155884
18, 30, 0, 1.305678129196167
18, 31, 0, 1.323894381523132
18, 32, 0, 1.252125978469849
18, 33, 0, 1.257829070091248
18, 34, 0, 1.278075575828552
18, 35, 0, 0.6207224130630493
18, 36, 0, 1.291384816169739
18, 37, 0, 0.9562498927116394
18, 38, 0, 1.294718384742737
18, 39, 0, 0.9939450621604919
18, 40, 0, 3.384922742843628
18, 41, 0, 0.6313514113426208
18, 42, 0, 0.3286440968513489
18, 43, 0, 1.621792435646057
18, 44, 0, 0.9916603565216064
18, 45, 0, 0.9482731223106384
18, 46, 0, 0.6303040385246277
18, 47, 0, 2.632920980453491
18, 48, 0, 1.691099643707275
18, 49, 0, 2.261839628219604
19, 0, 0, 1.286588668823242
19, 1, 0, 1.347283363342285
19, 2, 0, 1.932528018951416
19, 3, 0, 0.3001661896705627
19, 4, 0, 2.919551610946655
19, 5, 0, 1.275381445884705
19, 6, 0, 0.987465500831604
19, 7, 0, 0.6353573203086853
19, 8, 0, 1.69378399848938
19, 9, 0, 0.6980418562889099
19, 10, 0, 1.886251449584961
19, 11, 0, 2.265428304672241
19, 12, 0, 2.007982015609741
19, 13, 0, 1.634569406509399
19, 14, 0, 0.9780522584915161
19, 15, 0, 0.6278097033500671
19, 16, 0, 0
19, 17, 0, 1.971744179725647
19, 18, 0, 0.6688182950019836
19, 19, 0, 0.9500843286514282
19, 20, 0, 2.277671813964844
19, 21, 0, 0.3077899217605591
19, 22, 0, 1.270859956741333
19, 23, 0, 0.6039904952049255
19, 24, 0, 0.9519531726837158
19, 25, 0, 1.302407383918762
19, 26, 0, 0.3167312741279602
19, 27, 0, 2.273911952972412
19, 28, 0, 2.661618232727051
19, 29, 0, 1.333230972290039
19, 30, 0, 1.640883564949036
19, 31, 0, 1.368906617164612
19, 32, 0, 2.293340444564819
19, 33, 0, 0.9137863516807556
19, 34, 0, 2.270290851593018
19, 35, 0, 1.011852145195007
19, 36, 0, 1.965073466300964
19, 37, 0, 1.972209095954895
19, 38, 0, 2.27191948890686
19, 39, 0, 1.65719211101532
19, 40, 0, 0.9949200749397278
19, 41, 0, 1.571999907493591
19, 42, 0, 1.986595988273621
19, 43, 0, 1.238277912139893
19, 44, 0, 1.661711096763611
19, 45, 0, 2.631532192230225
19, 46, 0, 0.9639511108398438
19, 47, 0, 0.2985240519046783
19, 48, 0, 0.9983047246932983
19, 49, 0, 0.3392722308635712
20, 0, 0, 0.6341971158981323
20, 1, 0, 1.610756874084473
20, 2, 0, 1.044779896736145
20, 3, 0, 2.017315149307251
20, 4, 0, 1.936533689498901
20, 5, 0, 1.914165258407593
20, 6, 0, 2.519643783569336
20, 7, 0, 0.9482600688934326
20, 8, 0, 0.6209911108016968
20, 9, 0, 1.594243288040161
20, 10, 0, 2.361350536346436
20, 11, 0, 0.9496797323226929
20, 12, 0, 0.3195191323757172
20, 13, 0, 1.252732157707214
20, 14, 0, 0.6278224587440491
20, 15, 0, 1.351710200309753
20, 16, 0, 1.673342704772949
20, 17, 0, 2.317962408065796
20, 18, 0, 1.718980193138123
20, 19, 0, 1.631805539131165
20, 20, 0, 0.2976669669151306
20, 21, 0, 1.268757581710815
20, 22, 0, 1.942622065544128
20, 23, 0, 0.3397838771343231
20, 24, 0, 3.082934379577637
20, 25, 0, 0
20, 26, 0, 1.657665252685547
20, 27, 0, 1.635779500007629
20, 28, 0, 1.706701278686523
20, 29, 0, 2.603679418563843
20, 30, 0, 1.651265978813171
20, 31, 0, 1.621250867843628
20, 32, 0, 2.025669097900391
20, 33, 0, 1.007849216461182
20, 34, 0, 0.9124541878700256
20, 35, 0, 2.258363723754883
20, 36, 0, 1.006542563438416
20, 37, 0, 1.697894096374512
20, 38, 0, 2.217455625534058
20, 39, 0, 0.9522844552993774
20, 40, 0, 1.30169939994812
20, 41, 0, 1.535106182098389
20, 42, 0, 2.32016396522522
20, 43, 0, 1.677658081054688
20, 44, 0, 1.649420976638794
20, 45, 0, 1.6750328540802
20, 46, 0, 1.980286240577698
20, 47, 0, 2.043914556503296
