# TOPAS Version: 3.7
# Parameter File: main
# Results for scorer dose
# Scored in component: Patch
# X in 50 bins of 0.0002 cm
# Y in 50 bins of 0.0002 cm
# Z in 1 bin  of 0.003 cm
# DoseToMedium ( Gy ) : Sum   
0, 0, 0, 2.830986261367798
0, 1, 0, 3.783272504806519
0, 2, 0, 1.636849880218506
0, 3, 0, 3.834315061569214
0, 4, 0, 3.769501209259033
0, 5, 0, 3.272676229476929
0, 6, 0, 4.162136077880859
0, 7, 0, 4.55250883102417
0, 8, 0, 3.765619516372681
0, 9, 0, 4.873587608337402
0, 10, 0, 1.302417039871216
0, 11, 0, 5.557188034057617
0, 12, 0, 1.29333221912384
0, 13, 0, 3.953355550765991
0, 14, 0, 2.001733064651489
0, 15, 0, 3.94508695602417
0, 16, 0, 4.337042331695557
0, 17, 0, 2.214632034301758
0, 18, 0, 3.731670141220093
0, 19, 0, 2.678357362747192
0, 20, 0, 4.609675407409668
0, 21, 0, 3.848648548126221
0, 22, 0, 3.596680641174316
0, 23, 0, 2.290429592132568
0, 24, 0, 2.78673267364502
0, 25, 0, 3.104197263717651
0, 26, 0, 4.948319911956787
0, 27, 0, 2.526544332504272
0, 28, 0, 1.939426064491272
0, 29, 0, 4.320803165435791
0, 30, 0, 4.977100372314453
0, 31, 0, 3.556943655014038
0, 32, 0, 3.268480539321899
0, 33, 0, 1.335685133934021
0, 34, 0, 2.629396915435791
0, 35, 0, 2.974243640899658
0, 36, 0, 2.584450721740723
0, 37, 0, 3.246343612670898
0, 38, 0, 3.019599914550781
0, 39, 0, 3.2746741771698
0, 40, 0, 0.9626357555389404
0, 41, 0, 3.331274271011353
0, 42, 0, 3.532167196273804
0, 43, 0, 3.218607187271118
0, 44, 0, 3.484296798706055
0, 45, 0, 3.190378189086914
0, 46, 0, 4.233572006225586
0, 47, 0, 3.88428521156311
0, 48, 0, 2.250661373138428
0, 49, 0, 3.169709205627441
1, 0, 0, 1.850436449050903
1, 1, 0, 4.915763854980469
1, 2, 0, 3.954802513122559
1, 3, 0, 3.262917757034302
1, 4, 0, 3.462116718292236
1, 5, 0, 5.362985134124756
1, 6, 0, 2.209105730056763
1, 7, 0, 3.890119552612305
1, 8, 0, 3.017659187316895
1, 9, 0, 2.485169887542725
1, 10, 0, 2.297043085098267
1, 11, 0, 3.286294937133789
1, 12, 0, 1.292790174484253
1, 13, 0, 2.974652528762817
1, 14, 0, 2.906878232955933
1, 15, 0, 2.341937065124512
1, 16, 0, 2.589432954788208
1, 17, 0, 3.21765923500061
1, 18, 0, 3.947445154190063
1, 19, 0, 3.857912540435791
1, 20, 0, 3.88466215133667
1, 21, 0, 3.487050294876099
1, 22, 0, 2.893222332000732
1, 23, 0, 2.249492168426514
1, 24, 0, 1.577864527702332
1, 25, 0, 4.503348350524902
1, 26, 0, 3.258206129074097
1, 27, 0, 2.610498666763306
1, 28, 0, 2.872846126556396
1, 29, 0, 3.457724094390869
1, 30, 0, 3.314579486846924
1, 31, 0, 1.259479641914368
1, 32, 0, 3.368430614471436
1, 33, 0, 2.966820001602173
1, 34, 0, 1.975886464118958
1, 35, 0, 3.081827878952026
1, 36, 0, 2.232317209243774
1, 37, 0, 2.321558237075806
1, 38, 0, 3.162444114685059
1, 39, 0, 2.666804313659668
1, 40, 0, 3.628647565841675
1, 41, 0, 4.39461088180542
1, 42, 0, 2.611731767654419
1, 43, 0, 2.025890827178955
1, 44, 0, 4.611830234527588
1, 45, 0, 4.192023277282715
1, 46, 0, 3.871435165405273
1, 47, 0, 2.230014562606812
1, 48, 0, 1.361652731895447
1, 49, 0, 3.30839991569519
2, 0, 0, 3.554227113723755
2, 1, 0, 4.354147911071777
2, 2, 0, 2.954062700271606
2, 3, 0, 3.525790929794312
2, 4, 0, 3.046042680740356
2, 5, 0, 1.905282020568848
2, 6, 0, 1.629466652870178
2, 7, 0, 4.384818553924561
2, 8, 0, 1.61526346206665
2, 9, 0, 2.285958051681519
2, 10, 0, 5.190761566162109
2, 11, 0, 5.899899482727051
2, 12, 0, 4.548398971557617
2, 13, 0, 2.591218948364258
2, 14, 0, 3.635573148727417
2, 15, 0, 4.488520622253418
2, 16, 0, 2.640178680419922
2, 17, 0, 3.326928615570068
2, 18, 0, 4.030084609985352
2, 19, 0, 5.354937076568604
2, 20, 0, 2.274745464324951
2, 21, 0, 3.156070709228516
2, 22, 0, 2.864031791687012
2, 23, 0, 1.957011580467224
2, 24, 0, 3.127372741699219
2, 25, 0, 2.279170989990234
2, 26, 0, 2.640689134597778
2, 27, 0, 2.59003758430481
2, 28, 0, 2.595253229141235
2, 29, 0, 2.212939977645874
2, 30, 0, 2.924718141555786
2, 31, 0, 1.937156319618225
2, 32, 0, 0.9663273096084595
2, 33, 0, 1.312090396881104
2, 34, 0, 2.915498495101929
2, 35, 0, 1.335378766059875
2, 36, 0, 1.684663891792297
2, 37, 0, 2.885191679000854
2, 38, 0, 3.976482152938843
2, 39, 0, 3.917512893676758
2, 40, 0, 2.929271936416626
2, 41, 0, 3.570876836776733
2, 42, 0, 4.03078556060791
2, 43, 0, 3.55867600440979
2, 44, 0, 0.9631779789924622
2, 45, 0, 3.837602138519287
2, 46, 0, 2.56880259513855
2, 47, 0, 2.036919116973877
2, 48, 0, 3.963447332382202
2, 49, 0, 3.588814258575439
3, 0, 0, 3.337258338928223
3, 1, 0, 2.95362663269043
3, 2, 0, 3.606594324111938
3, 3, 0, 2.294304609298706
3, 4, 0, 2.610166311264038
3, 5, 0, 2.873422622680664
3, 6, 0, 3.250030755996704
3, 7, 0, 3.285512208938599
3, 8, 0, 4.052183628082275
3, 9, 0, 3.561367988586426
3, 10, 0, 2.504820108413696
3, 11, 0, 4.193921566009521
3, 12, 0, 4.235879421234131
3, 13, 0, 2.271289825439453
3, 14, 0, 2.216968536376953
3, 15, 0, 2.626570463180542
3, 16, 0, 3.617754936218262
3, 17, 0, 1.312721848487854
3, 18, 0, 1.613714694976807
3, 19, 0, 2.274304628372192
3, 20, 0, 4.249683380126953
3, 21, 0, 2.557788848876953
3, 22, 0, 3.594828844070435
3, 23, 0, 3.692353010177612
3, 24, 0, 1.28826642036438
3, 25, 0, 4.242887020111084
3, 26, 0, 2.85807204246521
3, 27, 0, 4.52150297164917
3, 28, 0, 2.289207220077515
3, 29, 0, 2.968331575393677
3, 30, 0, 2.839545726776123
3, 31, 0, 3.604016065597534
3, 32, 0, 2.234261512756348
3, 33, 0, 4.676244735717773
3, 34, 0, 5.127579212188721
3, 35, 0, 4.20929479598999
3, 36, 0, 2.248932361602783
3, 37, 0, 5.043820858001709
3, 38, 0, 2.710876941680908
3, 39, 0, 6.33234167098999
3, 40, 0, 6.286192417144775
3, 41, 0, 2.858969449996948
3, 42, 0, 3.640161752700806
3, 43, 0, 3.859992742538452
3, 44, 0, 2.833657026290894
3, 45, 0, 3.888345718383789
3, 46, 0, 2.243351459503174
3, 47, 0, 2.610038280487061
3, 48, 0, 2.986423015594482
3, 49, 0, 2.216356754302979
4, 0, 0, 4.440308570861816
4, 1, 0, 2.600369930267334
4, 2, 0, 2.949235439300537
4, 3, 0, 4.474133014678955
4, 4, 0, 4.596821308135986
4, 5, 0, 2.285743236541748
4, 6, 0, 3.813236951828003
4, 7, 0, 4.304624080657959
4, 8, 0, 5.300117969512939
4, 9, 0, 4.543219566345215
4, 10, 0, 1.91655433177948
4, 11, 0, 5.125702857971191
4, 12, 0, 2.531563282012939
4, 13, 0, 4.778970241546631
4, 14, 0, 4.546891689300537
4, 15, 0, 3.414586067199707
4, 16, 0, 3.558844566345215
4, 17, 0, 4.922677516937256
4, 18, 0, 3.617911577224731
4, 19, 0, 5.139444828033447
4, 20, 0, 4.208759307861328
4, 21, 0, 3.324484825134277
4, 22, 0, 2.155969142913818
4, 23, 0, 3.33366322517395
4, 24, 0, 2.922393798828125
4, 25, 0, 3.589231014251709
4, 26, 0, 2.281470775604248
4, 27, 0, 4.89077091217041
4, 28, 0, 2.57230281829834
4, 29, 0, 4.531912803649902
4, 30, 0, 1.633501052856445
4, 31, 0, 3.850856065750122
4, 32, 0, 2.252315521240234
4, 33, 0, 3.586311817169189
4, 34, 0, 2.594321012496948
4, 35, 0, 4.304969310760498
4, 36, 0, 2.279663324356079
4, 37, 0, 2.642785549163818
4, 38, 0, 2.583674192428589
4, 39, 0, 3.511882305145264
4, 40, 0, 4.858415603637695
4, 41, 0, 2.487773656845093
4, 42, 0, 2.603000640869141
4, 43, 0, 2.617130279541016
4, 44, 0, 2.583014488220215
4, 45, 0, 2.65934419631958
4, 46, 0, 3.248873233795166
4, 47, 0, 2.599274873733521
4, 48, 0, 3.550342082977295
4, 49, 0, 2.983231782913208
5, 0, 0, 2.615782737731934
5, 1, 0, 2.560677289962769
5, 2, 0, 2.23478627204895
5, 3, 0, 2.54975438117981
5, 4, 0, 2.307671308517456
5, 5, 0, 3.458648443222046
5, 6, 0, 3.631929159164429
5, 7, 0, 3.222535371780396
5, 8, 0, 2.381873846054077
5, 9, 0, 4.556419849395752
5, 10, 0, 1.909693121910095
5, 11, 0, 3.366565465927124
5, 12, 0, 3.233104944229126
5, 13, 0, 1.946349024772644
5, 14, 0, 0.9371761083602905
5, 15, 0, 2.281037569046021
5, 16, 0, 1.915421366691589
5, 17, 0, 3.153979063034058
5, 18, 0, 1.909178376197815
5, 19, 0, 2.607491731643677
5, 20, 0, 4.555621147155762
5, 21, 0, 4.22684907913208
5, 22, 0, 2.637218952178955
5, 23, 0, 3.602138519287109
5, 24, 0, 4.57749080657959
5, 25, 0, 2.93269419670105
5, 26, 0, 3.015188217163086
5, 27, 0, 2.676746845245361
5, 28, 0, 4.230386734008789
5, 29, 0, 2.645304203033447
5, 30, 0, 2.580739259719849
5, 31, 0, 3.471643447875977
5, 32, 0, 3.309741258621216
5, 33, 0, 2.607229471206665
5, 34, 0, 1.566128015518188
5, 35, 0, 4.377712726593018
5, 36, 0, 3.213918447494507
5, 37, 0, 3.587224960327148
5, 38, 0, 1.642359972000122
5, 39, 0, 4.236703872680664
5, 40, 0, 2.983566522598267
5, 41, 0, 1.961084723472595
5, 42, 0, 4.32088565826416
5, 43, 0, 3.298082828521729
5, 44, 0, 3.13220477104187
5, 45, 0, 3.598301887512207
5, 46, 0, 5.153605937957764
5, 47, 0, 2.870797872543335
5, 48, 0, 1.942155838012695
5, 49, 0, 4.331243515014648
6, 0, 0, 4.487518310546875
6, 1, 0, 2.577841997146606
6, 2, 0, 4.264607906341553
6, 3, 0, 3.164501428604126
6, 4, 0, 1.929551005363464
6, 5, 0, 3.903235673904419
6, 6, 0, 5.225216388702393
6, 7, 0, 4.863441944122314
6, 8, 0, 4.963783264160156
6, 9, 0, 2.917375087738037
6, 10, 0, 4.468932151794434
6, 11, 0, 4.171973705291748
6, 12, 0, 3.403754234313965
6, 13, 0, 4.228389263153076
6, 14, 0, 2.952872514724731
6, 15, 0, 1.662487745285034
6, 16, 0, 1.968663811683655
6, 17, 0, 1.920827150344849
6, 18, 0, 4.238162040710449
6, 19, 0, 2.631876945495605
6, 20, 0, 3.862305641174316
6, 21, 0, 2.021809816360474
6, 22, 0, 3.593832492828369
6, 23, 0, 2.619656562805176
6, 24, 0, 3.95742392539978
6, 25, 0, 2.951895475387573
6, 26, 0, 2.606779813766479
6, 27, 0, 2.195709228515625
6, 28, 0, 3.312695980072021
6, 29, 0, 2.660572052001953
6, 30, 0, 3.845259189605713
6, 31, 0, 2.927814960479736
6, 32, 0, 1.986034989356995
6, 33, 0, 4.342069625854492
6, 34, 0, 4.770669460296631
6, 35, 0, 1.662415146827698
6, 36, 0, 3.89485502243042
6, 37, 0, 2.290026187896729
6, 38, 0, 3.593693494796753
6, 39, 0, 2.098433971405029
6, 40, 0, 4.046555519104004
6, 41, 0, 0.9710728526115417
6, 42, 0, 3.31407618522644
6, 43, 0, 2.867347240447998
6, 44, 0, 3.294529438018799
6, 45, 0, 2.962935447692871
6, 46, 0, 2.643919467926025
6, 47, 0, 3.905975103378296
6, 48, 0, 1.949579834938049
6, 49, 0, 4.005326747894287
7, 0, 0, 3.226305246353149
7, 1, 0, 4.578222751617432
7, 2, 0, 4.017590522766113
7, 3, 0, 1.684932708740234
7, 4, 0, 0.6549902558326721
7, 5, 0, 4.413788318634033
7, 6, 0, 6.555057525634766
7, 7, 0, 4.578776359558105
7, 8, 0, 4.564032077789307
7, 9, 0, 3.926408052444458
7, 10, 0, 2.211797714233398
7, 11, 0, 4.642584800720215
7, 12, 0, 1.955797672271729
7, 13, 0, 1.209378004074097
7, 14, 0, 2.906897783279419
7, 15, 0, 2.624403238296509
7, 16, 0, 1.603263974189758
7, 17, 0, 2.620897769927979
7, 18, 0, 1.614309549331665
7, 19, 0, 3.458257675170898
7, 20, 0, 2.141318559646606
7, 21, 0, 1.961617946624756
7, 22, 0, 3.570221900939941
7, 23, 0, 2.70917272567749
7, 24, 0, 2.647498369216919
7, 25, 0, 1.311204433441162
7, 26, 0, 2.647002458572388
7, 27, 0, 2.888552904129028
7, 28, 0, 2.884434938430786
7, 29, 0, 3.901164293289185
7, 30, 0, 0.9501555562019348
7, 31, 0, 2.309326410293579
7, 32, 0, 3.602190494537354
7, 33, 0, 4.011277198791504
7, 34, 0, 1.917652130126953
7, 35, 0, 3.53024959564209
7, 36, 0, 2.582919359207153
7, 37, 0, 1.988503575325012
7, 38, 0, 4.841852188110352
7, 39, 0, 3.418612480163574
7, 40, 0, 3.791260480880737
7, 41, 0, 3.069070100784302
7, 42, 0, 3.225703716278076
7, 43, 0, 1.948266863822937
7, 44, 0, 2.60006046295166
7, 45, 0, 2.497653722763062
7, 46, 0, 1.518535733222961
7, 47, 0, 3.629182815551758
7, 48, 0, 2.779594659805298
7, 49, 0, 2.953452110290527
8, 0, 0, 2.23822808265686
8, 1, 0, 3.563002824783325
8, 2, 0, 4.879666328430176
8, 3, 0, 1.923049807548523
8, 4, 0, 2.356133937835693
8, 5, 0, 3.192248106002808
8, 6, 0, 2.58449912071228
8, 7, 0, 5.212328433990479
8, 8, 0, 1.919478297233582
8, 9, 0, 3.040071249008179
8, 10, 0, 1.34234881401062
8, 11, 0, 1.258291721343994
8, 12, 0, 5.208782196044922
8, 13, 0, 3.344736099243164
8, 14, 0, 4.233818531036377
8, 15, 0, 2.938670635223389
8, 16, 0, 1.989952683448792
8, 17, 0, 3.219590663909912
8, 18, 0, 4.182027816772461
8, 19, 0, 3.661556005477905
8, 20, 0, 3.204854488372803
8, 21, 0, 1.698272109031677
8, 22, 0, 2.87286639213562
8, 23, 0, 2.615856885910034
8, 24, 0, 2.347375392913818
8, 25, 0, 3.250741243362427
8, 26, 0, 2.933942794799805
8, 27, 0, 2.273170232772827
8, 28, 0, 3.212996482849121
8, 29, 0, 5.012835025787354
8, 30, 0, 3.919356822967529
8, 31, 0, 2.993502378463745
8, 32, 0, 1.963033199310303
8, 33, 0, 4.861270904541016
8, 34, 0, 2.576849460601807
8, 35, 0, 2.392025947570801
8, 36, 0, 2.013887882232666
8, 37, 0, 2.66706371307373
8, 38, 0, 2.403396129608154
8, 39, 0, 3.949968338012695
8, 40, 0, 3.444365262985229
8, 41, 0, 3.232769012451172
8, 42, 0, 3.737113475799561
8, 43, 0, 3.266849040985107
8, 44, 0, 2.678527593612671
8, 45, 0, 3.170480489730835
8, 46, 0, 4.998850345611572
8, 47, 0, 2.887204170227051
8, 48, 0, 1.91755211353302
8, 49, 0, 3.073639154434204
9, 0, 0, 3.266864538192749
9, 1, 0, 1.611379384994507
9, 2, 0, 3.808339595794678
9, 3, 0, 3.547910451889038
9, 4, 0, 4.649897575378418
9, 5, 0, 4.113857746124268
9, 6, 0, 4.264469146728516
9, 7, 0, 3.605343580245972
9, 8, 0, 2.661200046539307
9, 9, 0, 1.954870223999023
9, 10, 0, 1.942089796066284
9, 11, 0, 2.326473951339722
9, 12, 0, 3.910823822021484
9, 13, 0, 2.810397148132324
9, 14, 0, 3.915840864181519
9, 15, 0, 1.946583867073059
9, 16, 0, 3.152187824249268
9, 17, 0, 2.975038051605225
9, 18, 0, 3.549689292907715
9, 19, 0, 3.345122337341309
9, 20, 0, 2.897238969802856
9, 21, 0, 3.879370212554932
9, 22, 0, 2.526939630508423
9, 23, 0, 2.583657503128052
9, 24, 0, 2.537890434265137
9, 25, 0, 5.795723915100098
9, 26, 0, 3.64183235168457
9, 27, 0, 2.702035665512085
9, 28, 0, 4.821502685546875
9, 29, 0, 2.940405368804932
9, 30, 0, 2.660955190658569
9, 31, 0, 2.503200054168701
9, 32, 0, 1.874359130859375
9, 33, 0, 1.606130719184875
9, 34, 0, 2.957711935043335
9, 35, 0, 3.272046089172363
9, 36, 0, 1.654484748840332
9, 37, 0, 4.925604343414307
9, 38, 0, 3.277410268783569
9, 39, 0, 2.555689811706543
9, 40, 0, 1.934495449066162
9, 41, 0, 4.931334972381592
9, 42, 0, 3.226974964141846
9, 43, 0, 3.204312562942505
9, 44, 0, 4.935580253601074
9, 45, 0, 1.954432249069214
9, 46, 0, 4.599836349487305
9, 47, 0, 2.924525499343872
9, 48, 0, 2.930386066436768
9, 49, 0, 4.426088333129883
10, 0, 0, 2.915648698806763
10, 1, 0, 3.876749753952026
10, 2, 0, 3.967828750610352
10, 3, 0, 1.606922626495361
10, 4, 0, 4.766030788421631
10, 5, 0, 3.589631319046021
10, 6, 0, 1.708563327789307
10, 7, 0, 3.252205610275269
10, 8, 0, 3.897237300872803
10, 9, 0, 4.586868286132812
10, 10, 0, 3.015968799591064
10, 11, 0, 3.638199329376221
10, 12, 0, 2.322364568710327
10, 13, 0, 2.640052795410156
10, 14, 0, 1.957791209220886
10, 15, 0, 4.897083282470703
10, 16, 0, 2.646716594696045
10, 17, 0, 4.637151718139648
10, 18, 0, 2.695282936096191
10, 19, 0, 4.527539730072021
10, 20, 0, 3.273343086242676
10, 21, 0, 3.8018639087677
10, 22, 0, 3.928848743438721
10, 23, 0, 2.924856185913086
10, 24, 0, 3.340616941452026
10, 25, 0, 2.308701276779175
10, 26, 0, 2.977309465408325
10, 27, 0, 3.336282014846802
10, 28, 0, 2.647140502929688
10, 29, 0, 2.863804817199707
10, 30, 0, 2.641568183898926
10, 31, 0, 4.401015281677246
10, 32, 0, 3.216277122497559
10, 33, 0, 2.292802810668945
10, 34, 0, 2.26900839805603
10, 35, 0, 3.846120357513428
10, 36, 0, 2.518733501434326
10, 37, 0, 2.669189691543579
10, 38, 0, 5.027750015258789
10, 39, 0, 2.612230777740479
10, 40, 0, 3.561493158340454
10, 41, 0, 3.333536624908447
10, 42, 0, 2.878415107727051
10, 43, 0, 2.845034599304199
10, 44, 0, 4.262012481689453
10, 45, 0, 3.267297506332397
10, 46, 0, 1.886974692344666
10, 47, 0, 1.94238817691803
10, 48, 0, 2.951447248458862
10, 49, 0, 2.573820829391479
11, 0, 0, 3.528685331344604
11, 1, 0, 4.570992469787598
11, 2, 0, 3.529008388519287
11, 3, 0, 1.900443553924561
11, 4, 0, 2.564695835113525
11, 5, 0, 3.587595224380493
11, 6, 0, 1.930975556373596
11, 7, 0, 4.63278341293335
11, 8, 0, 2.984223604202271
11, 9, 0, 3.622398138046265
11, 10, 0, 3.551768779754639
11, 11, 0, 0.671785831451416
11, 12, 0, 4.481565475463867
11, 13, 0, 4.02044153213501
11, 14, 0, 3.59846019744873
11, 15, 0, 2.890273809432983
11, 16, 0, 2.862667560577393
11, 17, 0, 3.91940975189209
11, 18, 0, 3.540578603744507
11, 19, 0, 2.461647987365723
11, 20, 0, 2.584398746490479
11, 21, 0, 2.534687519073486
11, 22, 0, 2.658391952514648
11, 23, 0, 1.867853999137878
11, 24, 0, 3.843187808990479
11, 25, 0, 2.60555624961853
11, 26, 0, 3.615455627441406
11, 27, 0, 4.283000469207764
11, 28, 0, 3.58544135093689
11, 29, 0, 2.613135814666748
11, 30, 0, 2.582578897476196
11, 31, 0, 1.352423191070557
11, 32, 0, 3.241813659667969
11, 33, 0, 5.035734176635742
11, 34, 0, 2.957293272018433
11, 35, 0, 1.931336522102356
11, 36, 0, 3.78644585609436
11, 37, 0, 4.365521430969238
11, 38, 0, 3.268722057342529
11, 39, 0, 2.929513692855835
11, 40, 0, 3.042622566223145
11, 41, 0, 1.942046880722046
11, 42, 0, 4.066370964050293
11, 43, 0, 3.859970808029175
11, 44, 0, 2.561873197555542
11, 45, 0, 3.932674884796143
11, 46, 0, 4.875787734985352
11, 47, 0, 1.636183023452759
11, 48, 0, 2.989154815673828
11, 49, 0, 4.52603816986084
12, 0, 0, 3.852490663528442
12, 1, 0, 0.942333996295929
12, 2, 0, 3.691496849060059
12, 3, 0, 4.191511154174805
12, 4, 0, 1.009133815765381
12, 5, 0, 4.590835571289062
12, 6, 0, 3.227686882019043
12, 7, 0, 2.674305438995361
12, 8, 0, 1.616039633750916
12, 9, 0, 4.849635124206543
12, 10, 0, 4.884407043457031
12, 11, 0, 3.60611367225647
12, 12, 0, 3.88191294670105
12, 13, 0, 3.946993350982666
12, 14, 0, 3.602388381958008
12, 15, 0, 4.209789276123047
12, 16, 0, 2.626675605773926
12, 17, 0, 2.586727380752563
12, 18, 0, 2.617357730865479
12, 19, 0, 2.931739568710327
12, 20, 0, 2.690207004547119
12, 21, 0, 2.933859825134277
12, 22, 0, 3.838408231735229
12, 23, 0, 2.299325466156006
12, 24, 0, 3.02018666267395
12, 25, 0, 2.856943130493164
12, 26, 0, 4.676919937133789
12, 27, 0, 1.603674650192261
12, 28, 0, 2.942394971847534
12, 29, 0, 2.220642328262329
12, 30, 0, 4.610339641571045
12, 31, 0, 2.303839206695557
12, 32, 0, 2.65670371055603
12, 33, 0, 3.871354341506958
12, 34, 0, 4.566033840179443
12, 35, 0, 3.306381702423096
12, 36, 0, 2.570840358734131
12, 37, 0, 2.845612525939941
12, 38, 0, 3.625340938568115
12, 39, 0, 2.019927501678467
12, 40, 0, 3.635807752609253
12, 41, 0, 1.955345153808594
12, 42, 0, 7.142332077026367
12, 43, 0, 3.18755841255188
12, 44, 0, 3.621006488800049
12, 45, 0, 2.928349018096924
12, 46, 0, 2.976775646209717
12, 47, 0, 2.968017101287842
12, 48, 0, 3.565654039382935
12, 49, 0, 3.19602632522583
13, 0, 0, 3.17127251625061
13, 1, 0, 2.913199663162231
13, 2, 0, 2.29016637802124
13, 3, 0, 2.243427991867065
13, 4, 0, 4.41425609588623
13, 5, 0, 1.908373594284058
13, 6, 0, 4.851469993591309
13, 7, 0, 3.532493114471436
13, 8, 0, 3.987114429473877
13, 9, 0, 4.250739574432373
13, 10, 0, 1.562818288803101
13, 11, 0, 0.9791658520698547
13, 12, 0, 2.346242189407349
13, 13, 0, 1.923505663871765
13, 14, 0, 1.640487909317017
13, 15, 0, 2.184409379959106
13, 16, 0, 3.693206548690796
13, 17, 0, 2.313526391983032
13, 18, 0, 3.233561992645264
13, 19, 0, 3.651304721832275
13, 20, 0, 1.672920107841492
13, 21, 0, 2.613995552062988
13, 22, 0, 4.183197021484375
13, 23, 0, 3.892098665237427
13, 24, 0, 1.918464422225952
13, 25, 0, 4.889018058776855
13, 26, 0, 2.904952764511108
13, 27, 0, 1.942173600196838
13, 28, 0, 3.899351119995117
13, 29, 0, 5.211030006408691
13, 30, 0, 3.247479915618896
13, 31, 0, 1.901164770126343
13, 32, 0, 3.509320020675659
13, 33, 0, 4.035124778747559
13, 34, 0, 4.636777400970459
13, 35, 0, 2.448918342590332
13, 36, 0, 3.270213603973389
13, 37, 0, 2.136917114257812
13, 38, 0, 2.226570606231689
13, 39, 0, 2.547377347946167
13, 40, 0, 1.94866144657135
13, 41, 0, 4.136984825134277
13, 42, 0, 2.212188482284546
13, 43, 0, 1.375705599784851
13, 44, 0, 2.903045415878296
13, 45, 0, 1.939253568649292
13, 46, 0, 2.611072540283203
13, 47, 0, 1.63347315788269
13, 48, 0, 3.877365112304688
13, 49, 0, 2.623258590698242
14, 0, 0, 3.979372978210449
14, 1, 0, 2.250878572463989
14, 2, 0, 2.98655104637146
14, 3, 0, 5.495333194732666
14, 4, 0, 5.187477588653564
14, 5, 0, 3.289477825164795
14, 6, 0, 2.875121116638184
14, 7, 0, 3.157247066497803
14, 8, 0, 2.286588907241821
14, 9, 0, 4.534417629241943
14, 10, 0, 2.574277639389038
14, 11, 0, 3.809676885604858
14, 12, 0, 2.844842672348022
14, 13, 0, 1.306092977523804
14, 14, 0, 1.965181827545166
14, 15, 0, 2.922463417053223
14, 16, 0, 2.325884342193604
14, 17, 0, 4.267032623291016
14, 18, 0, 3.576268911361694
14, 19, 0, 3.977394104003906
14, 20, 0, 3.275237560272217
14, 21, 0, 1.02480685710907
14, 22, 0, 3.597265958786011
14, 23, 0, 2.531555414199829
14, 24, 0, 4.511236190795898
14, 25, 0, 2.4101722240448
14, 26, 0, 3.288631200790405
14, 27, 0, 4.170528411865234
14, 28, 0, 4.92224645614624
14, 29, 0, 3.532119750976562
14, 30, 0, 4.691817283630371
14, 31, 0, 3.974167108535767
14, 32, 0, 3.495641231536865
14, 33, 0, 2.242199659347534
14, 34, 0, 2.598976612091064
14, 35, 0, 2.583387613296509
14, 36, 0, 2.973112106323242
14, 37, 0, 3.895613670349121
14, 38, 0, 1.616201758384705
14, 39, 0, 4.586291313171387
14, 40, 0, 2.661148548126221
14, 41, 0, 2.237777233123779
14, 42, 0, 2.631794214248657
14, 43, 0, 4.46777868270874
14, 44, 0, 1.911485314369202
14, 45, 0, 2.911105155944824
14, 46, 0, 2.988093852996826
14, 47, 0, 4.033797740936279
14, 48, 0, 2.306726932525635
14, 49, 0, 5.417089939117432
15, 0, 0, 3.319827795028687
15, 1, 0, 3.580600261688232
15, 2, 0, 2.616412878036499
15, 3, 0, 3.911812782287598
15, 4, 0, 2.596061944961548
15, 5, 0, 3.257522106170654
15, 6, 0, 2.323408603668213
15, 7, 0, 1.963685750961304
15, 8, 0, 3.530749797821045
15, 9, 0, 2.186387777328491
15, 10, 0, 1.929014563560486
15, 11, 0, 3.513166427612305
15, 12, 0, 3.554418563842773
15, 13, 0, 3.247625827789307
15, 14, 0, 2.954261302947998
15, 15, 0, 3.311192274093628
15, 16, 0, 1.249185562133789
15, 17, 0, 1.582609295845032
15, 18, 0, 3.542384386062622
15, 19, 0, 1.532015204429626
15, 20, 0, 3.225071668624878
15, 21, 0, 4.537819862365723
15, 22, 0, 3.884922742843628
15, 23, 0, 2.560731410980225
15, 24, 0, 3.148360013961792
15, 25, 0, 4.055206298828125
15, 26, 0, 3.923798561096191
15, 27, 0, 3.889733076095581
15, 28, 0, 2.981798410415649
15, 29, 0, 5.17948055267334
15, 30, 0, 4.676533222198486
15, 31, 0, 3.879289865493774
15, 32, 0, 3.022792100906372
15, 33, 0, 1.993270039558411
15, 34, 0, 1.364330768585205
15, 35, 0, 2.932399272918701
15, 36, 0, 3.242430925369263
15, 37, 0, 1.595723986625671
15, 38, 0, 3.709328413009644
15, 39, 0, 1.255468010902405
15, 40, 0, 2.226742029190063
15, 41, 0, 2.842191696166992
15, 42, 0, 1.677419781684875
15, 43, 0, 3.444762706756592
15, 44, 0, 3.218982696533203
15, 45, 0, 2.885875225067139
15, 46, 0, 2.936055421829224
15, 47, 0, 3.579361438751221
15, 48, 0, 3.604720592498779
15, 49, 0, 2.900452375411987
16, 0, 0, 2.936676263809204
16, 1, 0, 3.520108938217163
16, 2, 0, 2.553308010101318
16, 3, 0, 4.289722442626953
16, 4, 0, 2.996963500976562
16, 5, 0, 4.689894676208496
16, 6, 0, 1.838851094245911
16, 7, 0, 4.134350299835205
16, 8, 0, 2.663795232772827
16, 9, 0, 2.907313585281372
16, 10, 0, 2.929064989089966
16, 11, 0, 2.614068746566772
16, 12, 0, 3.860371112823486
16, 13, 0, 4.041475772857666
16, 14, 0, 2.266847133636475
16, 15, 0, 0.3003880679607391
16, 16, 0, 5.241758346557617
16, 17, 0, 2.832289934158325
16, 18, 0, 2.934550762176514
16, 19, 0, 1.566545009613037
16, 20, 0, 1.29402482509613
16, 21, 0, 2.280340671539307
16, 22, 0, 1.62447452545166
16, 23, 0, 2.669421434402466
16, 24, 0, 2.529616594314575
16, 25, 0, 4.279553413391113
16, 26, 0, 0.6852126121520996
16, 27, 0, 1.8504319190979
16, 28, 0, 3.891051292419434
16, 29, 0, 4.476202487945557
16, 30, 0, 2.185286045074463
16, 31, 0, 2.927370071411133
16, 32, 0, 4.197847843170166
16, 33, 0, 2.990639209747314
16, 34, 0, 1.616114854812622
16, 35, 0, 0.991750955581665
16, 36, 0, 3.530572414398193
16, 37, 0, 2.913444042205811
16, 38, 0, 3.661933183670044
16, 39, 0, 3.288215398788452
16, 40, 0, 0.9620567560195923
16, 41, 0, 3.28248405456543
16, 42, 0, 1.986296057701111
16, 43, 0, 3.618427991867065
16, 44, 0, 4.043272495269775
16, 45, 0, 4.253283500671387
16, 46, 0, 4.627876758575439
16, 47, 0, 2.246831655502319
16, 48, 0, 2.813213348388672
16, 49, 0, 1.631840229034424
17, 0, 0, 3.277135848999023
17, 1, 0, 4.882332801818848
17, 2, 0, 3.428752899169922
17, 3, 0, 3.782982587814331
17, 4, 0, 3.17607307434082
17, 5, 0, 3.719840049743652
17, 6, 0, 4.749892711639404
17, 7, 0, 4.306052684783936
17, 8, 0, 2.995646715164185
17, 9, 0, 4.338038444519043
17, 10, 0, 2.365043163299561
17, 11, 0, 3.581507444381714
17, 12, 0, 2.86428427696228
17, 13, 0, 2.906002044677734
17, 14, 0, 1.963667154312134
17, 15, 0, 2.560352563858032
17, 16, 0, 2.920265913009644
17, 17, 0, 3.571593761444092
17, 18, 0, 2.240620136260986
17, 19, 0, 2.976142644882202
17, 20, 0, 1.923745274543762
17, 21, 0, 2.536376953125
17, 22, 0, 3.377230644226074
17, 23, 0, 4.303198337554932
17, 24, 0, 1.970623850822449
17, 25, 0, 3.201541185379028
17, 26, 0, 2.671833515167236
17, 27, 0, 4.52283239364624
17, 28, 0, 1.544467926025391
17, 29, 0, 3.574738740921021
17, 30, 0, 3.170322179794312
17, 31, 0, 2.914031982421875
17, 32, 0, 2.276256799697876
17, 33, 0, 1.594683766365051
17, 34, 0, 3.93772554397583
17, 35, 0, 2.871281862258911
17, 36, 0, 3.822192907333374
17, 37, 0, 2.7130446434021
17, 38, 0, 3.520309448242188
17, 39, 0, 3.670267581939697
17, 40, 0, 3.959746837615967
17, 41, 0, 4.123308181762695
17, 42, 0, 1.912172436714172
17, 43, 0, 4.197556018829346
17, 44, 0, 4.920571804046631
17, 45, 0, 2.008814573287964
17, 46, 0, 3.2208411693573
17, 47, 0, 4.298274040222168
17, 48, 0, 4.226772785186768
17, 49, 0, 3.469350337982178
18, 0, 0, 2.678634881973267
18, 1, 0, 3.211071491241455
18, 2, 0, 3.653803825378418
18, 3, 0, 1.002079606056213
18, 4, 0, 4.517755508422852
18, 5, 0, 3.940239429473877
18, 6, 0, 1.561419606208801
18, 7, 0, 4.304384231567383
18, 8, 0, 3.35944652557373
18, 9, 0, 2.284331321716309
18, 10, 0, 4.654168605804443
18, 11, 0, 2.636540412902832
18, 12, 0, 3.626729965209961
18, 13, 0, 3.353824377059937
18, 14, 0, 4.576370716094971
18, 15, 0, 3.212474584579468
18, 16, 0, 4.204094886779785
18, 17, 0, 4.595189094543457
18, 18, 0, 3.850487947463989
18, 19, 0, 3.195062160491943
18, 20, 0, 3.638587951660156
18, 21, 0, 1.901078939437866
18, 22, 0, 4.177356719970703
18, 23, 0, 1.606306076049805
18, 24, 0, 4.200368404388428
18, 25, 0, 3.984927177429199
18, 26, 0, 3.918302536010742
18, 27, 0, 2.593041658401489
18, 28, 0, 3.849574565887451
18, 29, 0, 3.633794069290161
18, 30, 0, 1.650750756263733
18, 31, 0, 2.969284772872925
18, 32, 0, 3.550637722015381
18, 33, 0, 3.162415742874146
18, 34, 0, 4.195217609405518
18, 35, 0, 2.565237998962402
18, 36, 0, 2.913882970809937
18, 37, 0, 2.564774990081787
18, 38, 0, 2.966936349868774
18, 39, 0, 1.987407326698303
18, 40, 0, 4.715395927429199
18, 41, 0, 1.950854301452637
18, 42, 0, 1.34664523601532
18, 43, 0, 2.558242321014404
18, 44, 0, 1.628468871116638
18, 45, 0, 1.926159501075745
18, 46, 0, 1.306396007537842
18, 47, 0, 4.943007946014404
18, 48, 0, 2.626573801040649
18, 49, 0, 4.389365673065186
19, 0, 0, 4.241640567779541
19, 1, 0, 6.031452655792236
19, 2, 0, 3.260379791259766
19, 3, 0, 0.5941925048828125
19, 4, 0, 5.208060264587402
19, 5, 0, 2.921134471893311
19, 6, 0, 2.320876121520996
19, 7, 0, 2.576166152954102
19, 8, 0, 3.030820846557617
19, 9, 0, 3.089358329772949
19, 10, 0, 3.188875675201416
19, 11, 0, 4.516228199005127
19, 12, 0, 3.291246652603149
19, 13, 0, 5.906136035919189
19, 14, 0, 3.83751654624939
19, 15, 0, 1.962678551673889
19, 16, 0, 2.028765439987183
19, 17, 0, 3.010056257247925
19, 18, 0, 1.680248737335205
19, 19, 0, 2.247620582580566
19, 20, 0, 3.945563316345215
19, 21, 0, 2.659728527069092
19, 22, 0, 3.198684930801392
19, 23, 0, 1.276093006134033
19, 24, 0, 2.296121120452881
19, 25, 0, 1.984686374664307
19, 26, 0, 1.648829817771912
19, 27, 0, 4.196280479431152
19, 28, 0, 5.955960750579834
19, 29, 0, 1.954082369804382
19, 30, 0, 3.692690849304199
19, 31, 0, 2.307934045791626
19, 32, 0, 4.600271701812744
19, 33, 0, 2.862434387207031
19, 34, 0, 3.994353294372559
19, 35, 0, 3.605607509613037
19, 36, 0, 2.911675691604614
19, 37, 0, 4.230287551879883
19, 38, 0, 3.525506258010864
19, 39, 0, 2.609543800354004
19, 40, 0, 3.319375276565552
19, 41, 0, 3.528741359710693
19, 42, 0, 3.632129430770874
19, 43, 0, 1.855074524879456
19, 44, 0, 2.950284481048584
19, 45, 0, 3.22237229347229
19, 46, 0, 2.644336223602295
19, 47, 0, 1.957579255104065
19, 48, 0, 1.957115769386292
19, 49, 0, 2.660901784896851
20, 0, 0, 1.267995595932007
20, 1, 0, 4.216150283813477
20, 2, 0, 2.292968273162842
20, 3, 0, 3.027257680892944
20, 4, 0, 4.655930042266846
20, 5, 0, 3.205356121063232
20, 6, 0, 5.888588428497314
20, 7, 0, 2.285683393478394
20, 8, 0, 2.603144884109497
20, 9, 0, 2.887884855270386
20, 10, 0, 5.646227359771729
20, 11, 0, 2.584769248962402
20, 12, 0, 3.019073724746704
20, 13, 0, 4.174708366394043
20, 14, 0, 1.88271701335907
20, 15, 0, 2.95686936378479
20, 16, 0, 2.59449291229248
20, 17, 0, 3.643570899963379
20, 18, 0, 3.375201225280762
20, 19, 0, 2.619940996170044
20, 20, 0, 0.9538633227348328
20, 21, 0, 3.515467643737793
20, 22, 0, 3.265240430831909
20, 23, 0, 1.576597809791565
20, 24, 0, 4.713353633880615
20, 25, 0, 2.511690616607666
20, 26, 0, 3.588200330734253
20, 27, 0, 4.240397930145264
20, 28, 0, 2.006960868835449
20, 29, 0, 4.630332946777344
20, 30, 0, 2.60017991065979
20, 31, 0, 2.225844860076904
20, 32, 0, 2.337776184082031
20, 33, 0, 2.947044610977173
20, 34, 0, 1.56781005859375
20, 35, 0, 3.861388444900513
20, 36, 0, 1.58973503112793
20, 37, 0, 2.684210300445557
20, 38, 0, 3.20782732963562
20, 39, 0, 2.633606433868408
20, 40, 0, 2.947925806045532
20, 41, 0, 2.187947034835815
20, 42, 0, 3.737254619598389
20, 43, 0, 2.290953159332275
20, 44, 0, 2.936429977416992
20, 45, 0, 3.29741644859314
20, 46, 0, 3.604331254959106
20, 47, 0, 3.000478506088257
20, 48, 0, 3.416047811508179
20, 49, 0, 3.262827634811401
21, 0, 0, 5.337192058563232
21, 1, 0, 5.560334205627441
21, 2, 0, 3.569374322891235
21, 3, 0, 3.28767204284668
21, 4, 0, 3.497478246688843
