# TOPAS Version: 3.7
# Parameter File: main
# Results for scorer dose
# Scored in component: Patch
# X in 50 bins of 0.0002 cm
# Y in 50 bins of 0.0002 cm
# Z in 1 bin  of 0.003 cm
# DoseToMedium ( Gy ) : Sum   
0, 0, 0, 2.830986261367798
0, 1, 0, 3.442341089248657
0, 2, 0, 1.303992986679077
0, 3, 0, 3.507949352264404
0, 4, 0, 3.131445407867432
0, 5, 0, 2.929268360137939
0, 6, 0, 4.162136077880859
0, 7, 0, 4.55250883102417
0, 8, 0, 3.40540623664856
0, 9, 0, 3.650581121444702
0, 10, 0, 1.302417039871216
0, 11, 0, 5.557188034057617
0, 12, 0, 0.9427537322044373
0, 13, 0, 3.625508069992065
0, 14, 0, 1.669295191764832
0, 15, 0, 3.94508695602417
0, 16, 0, 3.725695610046387
0, 17, 0, 2.214632034301758
0, 18, 0, 3.017780065536499
0, 19, 0, 2.371662616729736
0, 20, 0, 3.981467723846436
0, 21, 0, 3.848648548126221
0, 22, 0, 3.596680641174316
0, 23, 0, 2.290429592132568
0, 24, 0, 2.78673267364502
0, 25, 0, 3.104197263717651
0, 26, 0, 4.948319911956787
0, 27, 0, 2.189177989959717
0, 28, 0, 1.272519469261169
0, 29, 0, 4.320803165435791
0, 30, 0, 4.694188117980957
0, 31, 0, 3.232620239257812
0, 32, 0, 3.268480539321899
0, 33, 0, 1.335685133934021
0, 34, 0, 1.931820392608643
0, 35, 0, 1.994312405586243
0, 36, 0, 2.231557846069336
0, 37, 0, 2.948063611984253
0, 38, 0, 2.724069595336914
0, 39, 0, 2.917139291763306
0, 40, 0, 0.6249532103538513
0, 41, 0, 3.331274271011353
0, 42, 0, 3.532167196273804
0, 43, 0, 2.910526752471924
0, 44, 0, 3.210339546203613
0, 45, 0, 2.873339414596558
0, 46, 0, 3.625076770782471
0, 47, 0, 3.251981019973755
0, 48, 0, 1.949932456016541
0, 49, 0, 3.169709205627441
1, 0, 0, 1.850436449050903
1, 1, 0, 4.597376823425293
1, 2, 0, 3.637956619262695
1, 3, 0, 2.951374053955078
1, 4, 0, 3.462116718292236
1, 5, 0, 5.362985134124756
1, 6, 0, 2.209105730056763
1, 7, 0, 3.224605321884155
1, 8, 0, 2.660336256027222
1, 9, 0, 2.485169887542725
1, 10, 0, 1.981836795806885
1, 11, 0, 3.286294937133789
1, 12, 0, 1.292790174484253
1, 13, 0, 2.974652528762817
1, 14, 0, 2.243630886077881
1, 15, 0, 2.013254880905151
1, 16, 0, 2.589432954788208
1, 17, 0, 3.21765923500061
1, 18, 0, 3.947445154190063
1, 19, 0, 3.857912540435791
1, 20, 0, 3.88466215133667
1, 21, 0, 2.888050079345703
1, 22, 0, 2.582462072372437
1, 23, 0, 1.903910756111145
1, 24, 0, 1.577864527702332
1, 25, 0, 4.216977119445801
1, 26, 0, 3.258206129074097
1, 27, 0, 2.288392066955566
1, 28, 0, 2.524662971496582
1, 29, 0, 2.484377145767212
1, 30, 0, 2.998221158981323
1, 31, 0, 1.259479641914368
1, 32, 0, 2.35096001625061
1, 33, 0, 2.291778326034546
1, 34, 0, 1.975886464118958
1, 35, 0, 2.784207105636597
1, 36, 0, 1.901719331741333
1, 37, 0, 1.975211143493652
1, 38, 0, 3.162444114685059
1, 39, 0, 2.666804313659668
1, 40, 0, 3.270044326782227
1, 41, 0, 3.769837379455566
1, 42, 0, 1.585654258728027
1, 43, 0, 1.734044671058655
1, 44, 0, 4.284986972808838
1, 45, 0, 3.857567310333252
1, 46, 0, 3.548633575439453
1, 47, 0, 2.230014562606812
1, 48, 0, 1.361652731895447
1, 49, 0, 2.657017707824707
2, 0, 0, 3.554227113723755
2, 1, 0, 4.354147911071777
2, 2, 0, 2.954062700271606
2, 3, 0, 3.525790929794312
2, 4, 0, 2.757041931152344
2, 5, 0, 1.581781268119812
2, 6, 0, 1.629466652870178
2, 7, 0, 4.038834571838379
2, 8, 0, 1.61526346206665
2, 9, 0, 1.62706196308136
2, 10, 0, 4.859916210174561
2, 11, 0, 5.587634086608887
2, 12, 0, 4.21153736114502
2, 13, 0, 2.284401893615723
2, 14, 0, 3.635573148727417
2, 15, 0, 4.174621105194092
2, 16, 0, 2.320631504058838
2, 17, 0, 2.986883163452148
2, 18, 0, 4.030084609985352
2, 19, 0, 5.02423095703125
2, 20, 0, 2.274745464324951
2, 21, 0, 3.156070709228516
2, 22, 0, 2.864031791687012
2, 23, 0, 1.957011580467224
2, 24, 0, 3.127372741699219
2, 25, 0, 2.279170989990234
2, 26, 0, 2.01835560798645
2, 27, 0, 1.957298517227173
2, 28, 0, 2.595253229141235
2, 29, 0, 1.880065321922302
2, 30, 0, 2.924718141555786
2, 31, 0, 1.937156319618225
2, 32, 0, 0.9663273096084595
2, 33, 0, 1.312090396881104
2, 34, 0, 2.915498495101929
2, 35, 0, 1.335378766059875
2, 36, 0, 1.328294634819031
2, 37, 0, 2.885191679000854
2, 38, 0, 3.976482152938843
2, 39, 0, 3.613943099975586
2, 40, 0, 2.929271936416626
2, 41, 0, 3.245996236801147
2, 42, 0, 3.698395967483521
2, 43, 0, 3.55867600440979
2, 44, 0, 0.6387441158294678
2, 45, 0, 3.499640941619873
2, 46, 0, 2.264585733413696
2, 47, 0, 2.036919116973877
2, 48, 0, 3.60407829284668
2, 49, 0, 3.588814258575439
3, 0, 0, 3.337258338928223
3, 1, 0, 2.617774724960327
3, 2, 0, 2.989899396896362
3, 3, 0, 1.973667860031128
3, 4, 0, 2.610166311264038
3, 5, 0, 2.210592746734619
3, 6, 0, 2.925670146942139
3, 7, 0, 2.99625301361084
3, 8, 0, 2.995798826217651
3, 9, 0, 2.890742540359497
3, 10, 0, 2.504820108413696
3, 11, 0, 3.567559003829956
3, 12, 0, 3.867682456970215
3, 13, 0, 1.941115975379944
3, 14, 0, 2.216968536376953
3, 15, 0, 2.626570463180542
3, 16, 0, 2.679334878921509
3, 17, 0, 0.9947860836982727
3, 18, 0, 1.613714694976807
3, 19, 0, 2.274304628372192
3, 20, 0, 3.283484935760498
3, 21, 0, 2.557788848876953
3, 22, 0, 2.947413682937622
3, 23, 0, 3.371765375137329
3, 24, 0, 1.28826642036438
3, 25, 0, 3.892626047134399
3, 26, 0, 2.202738523483276
3, 27, 0, 4.19119930267334
3, 28, 0, 1.929673314094543
3, 29, 0, 2.671387672424316
3, 30, 0, 2.839545726776123
3, 31, 0, 2.974478960037231
3, 32, 0, 1.570760130882263
3, 33, 0, 4.676244735717773
3, 34, 0, 4.822025299072266
3, 35, 0, 4.20929479598999
3, 36, 0, 1.95433247089386
3, 37, 0, 5.043820858001709
3, 38, 0, 2.710876941680908
3, 39, 0, 6.010904312133789
3, 40, 0, 5.943289279937744
3, 41, 0, 2.583532810211182
3, 42, 0, 2.968475341796875
3, 43, 0, 3.859992742538452
3, 44, 0, 2.833657026290894
3, 45, 0, 3.537009954452515
3, 46, 0, 1.905340075492859
3, 47, 0, 1.63128674030304
3, 48, 0, 2.645711183547974
3, 49, 0, 1.610260248184204
4, 0, 0, 4.440308570861816
4, 1, 0, 2.600369930267334
4, 2, 0, 2.949235439300537
4, 3, 0, 4.474133014678955
4, 4, 0, 4.268455028533936
4, 5, 0, 2.285743236541748
4, 6, 0, 2.872307538986206
4, 7, 0, 4.304624080657959
4, 8, 0, 4.292911529541016
4, 9, 0, 4.543219566345215
4, 10, 0, 1.257855892181396
4, 11, 0, 4.47754955291748
4, 12, 0, 2.531563282012939
4, 13, 0, 4.778970241546631
4, 14, 0, 4.235128402709961
4, 15, 0, 3.414586067199707
4, 16, 0, 3.253977537155151
4, 17, 0, 4.922677516937256
4, 18, 0, 3.268537282943726
4, 19, 0, 3.87389874458313
4, 20, 0, 4.208759307861328
4, 21, 0, 3.324484825134277
4, 22, 0, 1.561588287353516
4, 23, 0, 3.33366322517395
4, 24, 0, 2.580385208129883
4, 25, 0, 2.968602657318115
4, 26, 0, 1.957827925682068
4, 27, 0, 4.211456298828125
4, 28, 0, 2.57230281829834
4, 29, 0, 4.21450662612915
4, 30, 0, 1.633501052856445
4, 31, 0, 3.550507068634033
4, 32, 0, 2.252315521240234
4, 33, 0, 3.214522123336792
4, 34, 0, 2.594321012496948
4, 35, 0, 4.016841411590576
4, 36, 0, 2.279663324356079
4, 37, 0, 2.642785549163818
4, 38, 0, 1.641832947731018
4, 39, 0, 2.918861865997314
4, 40, 0, 4.201310157775879
4, 41, 0, 2.161985635757446
4, 42, 0, 2.291176795959473
4, 43, 0, 2.259370803833008
4, 44, 0, 2.227844953536987
4, 45, 0, 1.682685017585754
4, 46, 0, 2.642421722412109
4, 47, 0, 2.599274873733521
4, 48, 0, 3.550342082977295
4, 49, 0, 2.983231782913208
5, 0, 0, 2.615782737731934
5, 1, 0, 1.933636546134949
5, 2, 0, 1.923993229866028
5, 3, 0, 2.210937023162842
5, 4, 0, 2.307671308517456
5, 5, 0, 3.458648443222046
5, 6, 0, 3.272500991821289
5, 7, 0, 3.222535371780396
5, 8, 0, 2.381873846054077
5, 9, 0, 4.209951400756836
5, 10, 0, 1.586955189704895
5, 11, 0, 3.029154062271118
5, 12, 0, 2.58536434173584
5, 13, 0, 1.946349024772644
5, 14, 0, 0.6084325909614563
5, 15, 0, 2.281037569046021
5, 16, 0, 1.915421366691589
5, 17, 0, 2.53210186958313
5, 18, 0, 1.909178376197815
5, 19, 0, 1.651627063751221
5, 20, 0, 4.555621147155762
5, 21, 0, 3.877975940704346
5, 22, 0, 2.637218952178955
5, 23, 0, 3.602138519287109
5, 24, 0, 4.241252899169922
5, 25, 0, 2.93269419670105
5, 26, 0, 2.344761371612549
5, 27, 0, 2.35393500328064
5, 28, 0, 3.619848012924194
5, 29, 0, 2.645304203033447
5, 30, 0, 2.254499912261963
5, 31, 0, 3.172683477401733
5, 32, 0, 3.00895094871521
5, 33, 0, 2.263299703598022
5, 34, 0, 1.566128015518188
5, 35, 0, 3.769805908203125
5, 36, 0, 2.552223920822144
5, 37, 0, 2.978459358215332
5, 38, 0, 1.642359972000122
5, 39, 0, 3.583081722259521
5, 40, 0, 2.644226551055908
5, 41, 0, 1.297131776809692
5, 42, 0, 3.658231735229492
5, 43, 0, 2.982959747314453
5, 44, 0, 3.13220477104187
5, 45, 0, 3.598301887512207
5, 46, 0, 4.205456733703613
5, 47, 0, 2.870797872543335
5, 48, 0, 1.942155838012695
5, 49, 0, 3.986416339874268
6, 0, 0, 3.541602373123169
6, 1, 0, 2.268694400787354
6, 2, 0, 4.264607906341553
6, 3, 0, 2.512378931045532
6, 4, 0, 1.929551005363464
6, 5, 0, 3.235216379165649
6, 6, 0, 4.2540602684021
6, 7, 0, 4.230268478393555
6, 8, 0, 4.963783264160156
6, 9, 0, 2.917375087738037
6, 10, 0, 3.531371116638184
6, 11, 0, 3.836848974227905
6, 12, 0, 3.093048810958862
6, 13, 0, 4.228389263153076
6, 14, 0, 2.626555681228638
6, 15, 0, 1.662487745285034
6, 16, 0, 1.968663811683655
6, 17, 0, 1.920827150344849
6, 18, 0, 4.238162040710449
6, 19, 0, 2.631876945495605
6, 20, 0, 3.862305641174316
6, 21, 0, 1.682398557662964
6, 22, 0, 3.281847953796387
6, 23, 0, 2.619656562805176
6, 24, 0, 3.640329599380493
6, 25, 0, 2.614835500717163
6, 26, 0, 2.606779813766479
6, 27, 0, 2.195709228515625
6, 28, 0, 3.008049964904785
6, 29, 0, 1.976211309432983
6, 30, 0, 3.845259189605713
6, 31, 0, 2.281712055206299
6, 32, 0, 1.653644204139709
6, 33, 0, 4.342069625854492
6, 34, 0, 4.770669460296631
6, 35, 0, 1.662415146827698
6, 36, 0, 3.594359636306763
6, 37, 0, 2.290026187896729
6, 38, 0, 3.593693494796753
6, 39, 0, 2.098433971405029
6, 40, 0, 3.74138331413269
6, 41, 0, 0.9710728526115417
6, 42, 0, 2.978134870529175
6, 43, 0, 2.498127937316895
6, 44, 0, 3.294529438018799
6, 45, 0, 2.634641885757446
6, 46, 0, 2.643919467926025
6, 47, 0, 3.590763807296753
6, 48, 0, 1.949579834938049
6, 49, 0, 4.005326747894287
7, 0, 0, 2.597671747207642
7, 1, 0, 4.268243312835693
7, 2, 0, 3.340855360031128
7, 3, 0, 1.684932708740234
7, 4, 0, 0.6549902558326721
7, 5, 0, 4.413788318634033
7, 6, 0, 5.613055229187012
7, 7, 0, 3.886355876922607
7, 8, 0, 4.234710693359375
7, 9, 0, 3.625828742980957
7, 10, 0, 1.895099759101868
7, 11, 0, 4.642584800720215
7, 12, 0, 1.955797672271729
7, 13, 0, 1.209378004074097
7, 14, 0, 2.906897783279419
7, 15, 0, 2.251665830612183
7, 16, 0, 1.603263974189758
7, 17, 0, 2.620897769927979
7, 18, 0, 1.302372455596924
7, 19, 0, 2.858883380889893
7, 20, 0, 2.141318559646606
7, 21, 0, 1.961617946624756
7, 22, 0, 3.247717380523682
7, 23, 0, 2.70917272567749
7, 24, 0, 2.005656957626343
7, 25, 0, 0.969586968421936
7, 26, 0, 2.322575807571411
7, 27, 0, 2.888552904129028
7, 28, 0, 2.243922472000122
7, 29, 0, 2.622620105743408
7, 30, 0, 0.9501555562019348
7, 31, 0, 1.642734169960022
7, 32, 0, 3.292646169662476
7, 33, 0, 3.311806440353394
7, 34, 0, 1.917652130126953
7, 35, 0, 3.53024959564209
7, 36, 0, 2.582919359207153
7, 37, 0, 1.61616575717926
7, 38, 0, 4.201411247253418
7, 39, 0, 3.418612480163574
7, 40, 0, 3.16951847076416
7, 41, 0, 2.730814218521118
7, 42, 0, 3.225703716278076
7, 43, 0, 1.948266863822937
7, 44, 0, 2.60006046295166
7, 45, 0, 2.497653722763062
7, 46, 0, 1.518535733222961
7, 47, 0, 3.291996955871582
7, 48, 0, 2.195863246917725
7, 49, 0, 2.62755823135376
8, 0, 0, 1.921501398086548
8, 1, 0, 3.249321460723877
8, 2, 0, 4.240721225738525
8, 3, 0, 1.285967230796814
8, 4, 0, 2.356133937835693
8, 5, 0, 2.870903253555298
8, 6, 0, 2.58449912071228
8, 7, 0, 4.237350940704346
8, 8, 0, 1.919478297233582
8, 9, 0, 2.698732614517212
8, 10, 0, 1.34234881401062
8, 11, 0, 1.258291721343994
8, 12, 0, 4.570138454437256
8, 13, 0, 2.680727005004883
8, 14, 0, 4.233818531036377
8, 15, 0, 2.244778156280518
8, 16, 0, 1.022740483283997
8, 17, 0, 3.219590663909912
8, 18, 0, 4.182027816772461
8, 19, 0, 3.030110597610474
8, 20, 0, 3.204854488372803
8, 21, 0, 1.698272109031677
8, 22, 0, 2.87286639213562
8, 23, 0, 2.278036594390869
8, 24, 0, 2.347375392913818
8, 25, 0, 2.904849529266357
8, 26, 0, 2.933942794799805
8, 27, 0, 2.273170232772827
8, 28, 0, 2.59933876991272
8, 29, 0, 4.672314643859863
8, 30, 0, 3.59358286857605
8, 31, 0, 2.993502378463745
8, 32, 0, 1.963033199310303
8, 33, 0, 4.861270904541016
8, 34, 0, 2.576849460601807
8, 35, 0, 2.392025947570801
8, 36, 0, 2.013887882232666
8, 37, 0, 2.346583366394043
8, 38, 0, 1.720720887184143
8, 39, 0, 3.64704155921936
8, 40, 0, 3.444365262985229
8, 41, 0, 2.641941785812378
8, 42, 0, 3.092037677764893
8, 43, 0, 2.605054378509521
8, 44, 0, 2.678527593612671
8, 45, 0, 3.170480489730835
8, 46, 0, 4.345530986785889
8, 47, 0, 2.600857973098755
8, 48, 0, 1.91755211353302
8, 49, 0, 2.725175142288208
9, 0, 0, 3.266864538192749
9, 1, 0, 1.317888617515564
9, 2, 0, 3.513144254684448
9, 3, 0, 2.906768798828125
9, 4, 0, 4.649897575378418
9, 5, 0, 4.113857746124268
9, 6, 0, 3.924118280410767
9, 7, 0, 2.912646293640137
9, 8, 0, 2.32279372215271
9, 9, 0, 1.954870223999023
9, 10, 0, 1.647936582565308
9, 11, 0, 1.956818103790283
9, 12, 0, 3.910823822021484
9, 13, 0, 2.535001277923584
9, 14, 0, 3.915840864181519
9, 15, 0, 1.946583867073059
9, 16, 0, 2.83092212677002
9, 17, 0, 2.975038051605225
9, 18, 0, 3.549689292907715
9, 19, 0, 3.025851726531982
9, 20, 0, 2.261200189590454
9, 21, 0, 3.229629278182983
9, 22, 0, 2.526939630508423
9, 23, 0, 2.274723768234253
9, 24, 0, 2.220451831817627
9, 25, 0, 5.17127513885498
9, 26, 0, 3.295140981674194
9, 27, 0, 2.702035665512085
9, 28, 0, 4.50330638885498
9, 29, 0, 2.249760627746582
9, 30, 0, 2.006837606430054
9, 31, 0, 2.503200054168701
9, 32, 0, 1.228288412094116
9, 33, 0, 1.606130719184875
9, 34, 0, 2.644286394119263
9, 35, 0, 3.272046089172363
9, 36, 0, 1.312149524688721
9, 37, 0, 4.592861175537109
9, 38, 0, 2.251043558120728
9, 39, 0, 1.92563259601593
9, 40, 0, 1.934495449066162
9, 41, 0, 4.58849048614502
9, 42, 0, 2.592698335647583
9, 43, 0, 3.204312562942505
9, 44, 0, 4.621993064880371
9, 45, 0, 1.954432249069214
9, 46, 0, 3.939762115478516
9, 47, 0, 2.924525499343872
9, 48, 0, 2.581812620162964
9, 49, 0, 4.426088333129883
10, 0, 0, 2.915648698806763
10, 1, 0, 3.543034791946411
10, 2, 0, 3.270925998687744
10, 3, 0, 1.606922626495361
10, 4, 0, 4.766030788421631
10, 5, 0, 3.589631319046021
10, 6, 0, 1.708563327789307
10, 7, 0, 3.252205610275269
10, 8, 0, 3.24458122253418
10, 9, 0, 2.869507789611816
10, 10, 0, 3.015968799591064
10, 11, 0, 3.638199329376221
10, 12, 0, 2.026988983154297
10, 13, 0, 2.301386594772339
10, 14, 0, 1.642909169197083
10, 15, 0, 4.540748596191406
10, 16, 0, 1.945693731307983
10, 17, 0, 4.637151718139648
10, 18, 0, 2.361557960510254
10, 19, 0, 4.18804407119751
10, 20, 0, 2.939647197723389
10, 21, 0, 3.448597431182861
10, 22, 0, 3.603574514389038
10, 23, 0, 2.924856185913086
10, 24, 0, 3.340616941452026
10, 25, 0, 2.308701276779175
10, 26, 0, 2.977309465408325
10, 27, 0, 2.682925701141357
10, 28, 0, 2.34583592414856
10, 29, 0, 2.547994375228882
10, 30, 0, 1.971148729324341
10, 31, 0, 4.401015281677246
10, 32, 0, 2.888880729675293
10, 33, 0, 1.620529294013977
10, 34, 0, 1.989656925201416
10, 35, 0, 3.509571552276611
10, 36, 0, 2.518733501434326
10, 37, 0, 2.011564016342163
10, 38, 0, 5.027750015258789
10, 39, 0, 2.612230777740479
10, 40, 0, 3.561493158340454
10, 41, 0, 3.333536624908447
10, 42, 0, 2.878415107727051
10, 43, 0, 2.530333995819092
10, 44, 0, 3.937034368515015
10, 45, 0, 2.931513071060181
10, 46, 0, 1.569177508354187
10, 47, 0, 1.94238817691803
10, 48, 0, 2.255566835403442
10, 49, 0, 1.923514246940613
11, 0, 0, 2.552367925643921
11, 1, 0, 3.918492555618286
11, 2, 0, 3.529008388519287
11, 3, 0, 1.900443553924561
11, 4, 0, 2.234067678451538
11, 5, 0, 2.895438432693481
11, 6, 0, 1.930975556373596
11, 7, 0, 4.291123867034912
11, 8, 0, 2.654589176177979
11, 9, 0, 3.286069869995117
11, 10, 0, 2.937909603118896
11, 11, 0, 0.671785831451416
11, 12, 0, 4.170858860015869
11, 13, 0, 3.668089866638184
11, 14, 0, 3.2874436378479
11, 15, 0, 2.579166650772095
11, 16, 0, 2.531625270843506
11, 17, 0, 3.91940975189209
11, 18, 0, 3.210565090179443
11, 19, 0, 1.837131023406982
11, 20, 0, 2.264806509017944
11, 21, 0, 2.534687519073486
11, 22, 0, 2.658391952514648
11, 23, 0, 1.534679293632507
11, 24, 0, 3.843187808990479
11, 25, 0, 2.60555624961853
11, 26, 0, 2.931702136993408
11, 27, 0, 3.919880151748657
11, 28, 0, 3.275657176971436
11, 29, 0, 2.263579845428467
11, 30, 0, 2.582578897476196
11, 31, 0, 0.988965630531311
11, 32, 0, 2.929050445556641
11, 33, 0, 4.71339225769043
11, 34, 0, 2.670142650604248
11, 35, 0, 1.931336522102356
11, 36, 0, 3.78644585609436
11, 37, 0, 3.708383083343506
11, 38, 0, 3.268722057342529
11, 39, 0, 2.929513692855835
11, 40, 0, 3.042622566223145
11, 41, 0, 1.942046880722046
11, 42, 0, 4.066370964050293
11, 43, 0, 3.859970808029175
11, 44, 0, 2.561873197555542
11, 45, 0, 2.621293783187866
11, 46, 0, 4.545159816741943
11, 47, 0, 1.636183023452759
11, 48, 0, 2.989154815673828
11, 49, 0, 4.52603816986084
12, 0, 0, 3.852490663528442
12, 1, 0, 0.942333996295929
12, 2, 0, 3.360697031021118
12, 3, 0, 3.54491925239563
12, 4, 0, 1.009133815765381
12, 5, 0, 4.274257183074951
12, 6, 0, 2.278467178344727
12, 7, 0, 2.302903890609741
12, 8, 0, 1.616039633750916
12, 9, 0, 4.849635124206543
12, 10, 0, 4.191834926605225
12, 11, 0, 3.001560688018799
12, 12, 0, 3.88191294670105
12, 13, 0, 3.301684141159058
12, 14, 0, 2.956418514251709
12, 15, 0, 3.514255046844482
12, 16, 0, 2.626675605773926
12, 17, 0, 2.240959405899048
12, 18, 0, 2.262977838516235
12, 19, 0, 2.931739568710327
12, 20, 0, 2.338274002075195
12, 21, 0, 2.933859825134277
12, 22, 0, 2.888248682022095
12, 23, 0, 2.299325466156006
12, 24, 0, 3.02018666267395
12, 25, 0, 2.856943130493164
12, 26, 0, 3.674057245254517
12, 27, 0, 1.603674650192261
12, 28, 0, 2.942394971847534
12, 29, 0, 1.883114099502563
12, 30, 0, 4.252768993377686
12, 31, 0, 1.992814660072327
12, 32, 0, 2.277464389801025
12, 33, 0, 3.871354341506958
12, 34, 0, 4.228117942810059
12, 35, 0, 3.306381702423096
12, 36, 0, 1.95557427406311
12, 37, 0, 2.195522785186768
12, 38, 0, 3.318914890289307
12, 39, 0, 2.019927501678467
12, 40, 0, 3.280889749526978
12, 41, 0, 1.955345153808594
12, 42, 0, 6.802540302276611
12, 43, 0, 2.515559434890747
12, 44, 0, 3.268874406814575
12, 45, 0, 2.607118129730225
12, 46, 0, 2.976775646209717
12, 47, 0, 2.272011518478394
12, 48, 0, 3.257134914398193
12, 49, 0, 2.878389120101929
13, 0, 0, 2.884696960449219
13, 1, 0, 2.5867600440979
13, 2, 0, 2.29016637802124
13, 3, 0, 1.923595905303955
13, 4, 0, 4.41425609588623
13, 5, 0, 1.604427933692932
13, 6, 0, 4.51764440536499
13, 7, 0, 2.933474063873291
13, 8, 0, 3.987114429473877
13, 9, 0, 4.250739574432373
13, 10, 0, 1.562818288803101
13, 11, 0, 0.9791658520698547
13, 12, 0, 2.346242189407349
13, 13, 0, 1.923505663871765
13, 14, 0, 1.322749853134155
13, 15, 0, 1.847641110420227
13, 16, 0, 3.357982635498047
13, 17, 0, 1.324074029922485
13, 18, 0, 2.574633121490479
13, 19, 0, 3.651304721832275
13, 20, 0, 1.672920107841492
13, 21, 0, 1.303604364395142
13, 22, 0, 3.516705274581909
13, 23, 0, 3.892098665237427
13, 24, 0, 1.918464422225952
13, 25, 0, 4.221601009368896
13, 26, 0, 2.572388648986816
13, 27, 0, 1.624744296073914
13, 28, 0, 3.594476461410522
13, 29, 0, 4.494021892547607
13, 30, 0, 3.247479915618896
13, 31, 0, 1.304190993309021
13, 32, 0, 2.900057792663574
13, 33, 0, 4.035124778747559
13, 34, 0, 4.328994750976562
13, 35, 0, 2.162229299545288
13, 36, 0, 3.270213603973389
13, 37, 0, 1.836932778358459
13, 38, 0, 1.916298270225525
13, 39, 0, 1.960729122161865
13, 40, 0, 1.94866144657135
13, 41, 0, 3.832380294799805
13, 42, 0, 2.212188482284546
13, 43, 0, 1.032426714897156
13, 44, 0, 2.903045415878296
13, 45, 0, 1.939253568649292
13, 46, 0, 2.611072540283203
13, 47, 0, 0.9975817203521729
13, 48, 0, 3.538719415664673
13, 49, 0, 2.623258590698242
14, 0, 0, 3.979372978210449
14, 1, 0, 2.250878572463989
14, 2, 0, 2.98655104637146
14, 3, 0, 5.158441066741943
14, 4, 0, 5.187477588653564
14, 5, 0, 3.289477825164795
14, 6, 0, 2.875121116638184
14, 7, 0, 3.157247066497803
14, 8, 0, 1.975543022155762
14, 9, 0, 3.873421669006348
14, 10, 0, 2.255242824554443
14, 11, 0, 3.809676885604858
14, 12, 0, 2.844842672348022
14, 13, 0, 1.306092977523804
14, 14, 0, 1.965181827545166
14, 15, 0, 1.906644940376282
14, 16, 0, 2.325884342193604
14, 17, 0, 3.565622329711914
14, 18, 0, 3.576268911361694
14, 19, 0, 3.977394104003906
14, 20, 0, 2.334220170974731
14, 21, 0, 1.02480685710907
14, 22, 0, 3.597265958786011
14, 23, 0, 2.531555414199829
14, 24, 0, 4.212613105773926
14, 25, 0, 2.4101722240448
14, 26, 0, 2.957629680633545
14, 27, 0, 4.170528411865234
14, 28, 0, 4.60033655166626
14, 29, 0, 3.224174976348877
14, 30, 0, 4.691817283630371
14, 31, 0, 3.348740100860596
14, 32, 0, 3.495641231536865
14, 33, 0, 2.242199659347534
14, 34, 0, 2.598976612091064
14, 35, 0, 2.242333889007568
14, 36, 0, 2.316046714782715
14, 37, 0, 3.267170190811157
14, 38, 0, 1.616201758384705
14, 39, 0, 3.58915376663208
14, 40, 0, 1.994569897651672
14, 41, 0, 2.237777233123779
14, 42, 0, 1.976375937461853
14, 43, 0, 4.121150493621826
14, 44, 0, 1.588072538375854
14, 45, 0, 2.593739986419678
14, 46, 0, 2.638134479522705
14, 47, 0, 3.713989496231079
14, 48, 0, 1.944202184677124
14, 49, 0, 4.775824069976807
15, 0, 0, 3.319827795028687
15, 1, 0, 3.250844717025757
15, 2, 0, 1.969950437545776
15, 3, 0, 3.911812782287598
15, 4, 0, 2.286446094512939
15, 5, 0, 3.257522106170654
15, 6, 0, 2.028573989868164
15, 7, 0, 1.33795952796936
15, 8, 0, 2.872731447219849
15, 9, 0, 2.186387777328491
15, 10, 0, 1.621712923049927
15, 11, 0, 3.513166427612305
15, 12, 0, 3.208828926086426
15, 13, 0, 3.247625827789307
15, 14, 0, 2.64647388458252
15, 15, 0, 3.311192274093628
15, 16, 0, 1.249185562133789
15, 17, 0, 1.582609295845032
15, 18, 0, 3.542384386062622
15, 19, 0, 1.222372174263
15, 20, 0, 3.225071668624878
15, 21, 0, 4.253502368927002
15, 22, 0, 3.884922742843628
15, 23, 0, 2.560731410980225
15, 24, 0, 2.849920272827148
15, 25, 0, 4.055206298828125
15, 26, 0, 2.972966194152832
15, 27, 0, 3.889733076095581
15, 28, 0, 2.981798410415649
15, 29, 0, 5.17948055267334
15, 30, 0, 4.027374744415283
15, 31, 0, 3.563261985778809
15, 32, 0, 2.707657337188721
15, 33, 0, 1.993270039558411
15, 34, 0, 1.035634160041809
15, 35, 0, 2.932399272918701
15, 36, 0, 2.919284343719482
15, 37, 0, 0.6021982431411743
15, 38, 0, 3.395026683807373
15, 39, 0, 0.9588778614997864
15, 40, 0, 2.226742029190063
15, 41, 0, 2.526854276657104
15, 42, 0, 0.9805064797401428
15, 43, 0, 3.444762706756592
15, 44, 0, 3.218982696533203
15, 45, 0, 2.580383062362671
15, 46, 0, 2.624109983444214
15, 47, 0, 2.925717830657959
15, 48, 0, 3.604720592498779
15, 49, 0, 2.222500562667847
16, 0, 0, 2.596935510635376
16, 1, 0, 3.191898584365845
16, 2, 0, 2.553308010101318
16, 3, 0, 2.97582745552063
16, 4, 0, 2.996963500976562
16, 5, 0, 4.37595272064209
16, 6, 0, 1.539375066757202
16, 7, 0, 3.189296722412109
16, 8, 0, 2.339059352874756
16, 9, 0, 2.907313585281372
16, 10, 0, 2.309648036956787
16, 11, 0, 2.614068746566772
16, 12, 0, 3.220104932785034
16, 13, 0, 3.675537824630737
16, 14, 0, 2.266847133636475
16, 15, 0, 0
16, 16, 0, 5.241758346557617
16, 17, 0, 2.832289934158325
16, 18, 0, 2.934550762176514
16, 19, 0, 1.263805866241455
16, 20, 0, 1.29402482509613
16, 21, 0, 1.970740795135498
16, 22, 0, 0.9615439176559448
16, 23, 0, 1.999609470367432
16, 24, 0, 2.210642337799072
16, 25, 0, 3.628661155700684
16, 26, 0, 0.6852126121520996
16, 27, 0, 1.8504319190979
16, 28, 0, 3.891051292419434
16, 29, 0, 4.140426158905029
16, 30, 0, 2.185286045074463
16, 31, 0, 2.574748516082764
16, 32, 0, 3.832329750061035
16, 33, 0, 2.686615705490112
16, 34, 0, 1.297018885612488
16, 35, 0, 0.6753814816474915
16, 36, 0, 2.91193413734436
16, 37, 0, 2.913444042205811
16, 38, 0, 3.31562352180481
16, 39, 0, 2.936683416366577
16, 40, 0, 0.9620567560195923
16, 41, 0, 3.28248405456543
16, 42, 0, 1.986296057701111
16, 43, 0, 3.618427991867065
16, 44, 0, 4.043272495269775
16, 45, 0, 3.908530712127686
16, 46, 0, 4.627876758575439
16, 47, 0, 1.578049659729004
16, 48, 0, 2.813213348388672
16, 49, 0, 1.326884984970093
17, 0, 0, 2.94924783706665
17, 1, 0, 4.53767728805542
17, 2, 0, 3.428752899169922
17, 3, 0, 3.143606424331665
17, 4, 0, 3.17607307434082
17, 5, 0, 3.043841123580933
17, 6, 0, 3.72258186340332
17, 7, 0, 3.989998817443848
17, 8, 0, 2.666102170944214
17, 9, 0, 3.658276319503784
17, 10, 0, 2.01905345916748
17, 11, 0, 3.273669719696045
17, 12, 0, 2.582290410995483
17, 13, 0, 2.906002044677734
17, 14, 0, 1.630781650543213
17, 15, 0, 1.891669273376465
17, 16, 0, 2.920265913009644
17, 17, 0, 3.571593761444092
17, 18, 0, 2.240620136260986
17, 19, 0, 2.306805372238159
17, 20, 0, 1.600084543228149
17, 21, 0, 1.840604066848755
17, 22, 0, 3.377230644226074
17, 23, 0, 3.983070850372314
17, 24, 0, 1.970623850822449
17, 25, 0, 2.8886878490448
17, 26, 0, 2.360734462738037
17, 27, 0, 3.884313106536865
17, 28, 0, 1.544467926025391
17, 29, 0, 3.574738740921021
17, 30, 0, 3.170322179794312
17, 31, 0, 2.914031982421875
17, 32, 0, 2.276256799697876
17, 33, 0, 1.32188868522644
17, 34, 0, 3.620479583740234
17, 35, 0, 2.541521072387695
17, 36, 0, 3.467441320419312
17, 37, 0, 2.7130446434021
17, 38, 0, 2.872998714447021
17, 39, 0, 3.333954334259033
17, 40, 0, 3.959746837615967
17, 41, 0, 3.776546716690063
17, 42, 0, 1.912172436714172
17, 43, 0, 4.197556018829346
17, 44, 0, 4.285309314727783
17, 45, 0, 1.672838568687439
17, 46, 0, 3.2208411693573
17, 47, 0, 3.991154432296753
17, 48, 0, 3.896278142929077
17, 49, 0, 2.846688270568848
18, 0, 0, 2.342803001403809
18, 1, 0, 3.211071491241455
18, 2, 0, 3.653803825378418
18, 3, 0, 1.002079606056213
18, 4, 0, 4.220104217529297
18, 5, 0, 3.592484474182129
18, 6, 0, 1.561419606208801
18, 7, 0, 3.97427225112915
18, 8, 0, 3.35944652557373
18, 9, 0, 1.993755578994751
18, 10, 0, 4.654168605804443
18, 11, 0, 2.636540412902832
18, 12, 0, 2.684597492218018
18, 13, 0, 3.353824377059937
18, 14, 0, 3.279845237731934
18, 15, 0, 3.212474584579468
18, 16, 0, 3.879587888717651
18, 17, 0, 4.272538661956787
18, 18, 0, 3.539907455444336
18, 19, 0, 2.253569841384888
18, 20, 0, 3.316781997680664
18, 21, 0, 1.55003559589386
18, 22, 0, 4.177356719970703
18, 23, 0, 0.6527063250541687
18, 24, 0, 3.555659770965576
18, 25, 0, 3.636139392852783
18, 26, 0, 3.563502073287964
18, 27, 0, 2.274075984954834
18, 28, 0, 3.849574565887451
18, 29, 0, 3.633794069290161
18, 30, 0, 1.650750756263733
18, 31, 0, 2.333821773529053
18, 32, 0, 3.550637722015381
18, 33, 0, 2.526055574417114
18, 34, 0, 3.574291467666626
18, 35, 0, 1.929554343223572
18, 36, 0, 2.597726106643677
18, 37, 0, 2.270551681518555
18, 38, 0, 2.966936349868774
18, 39, 0, 1.987407326698303
18, 40, 0, 4.715395927429199
18, 41, 0, 1.950854301452637
18, 42, 0, 1.34664523601532
18, 43, 0, 2.558242321014404
18, 44, 0, 1.628468871116638
18, 45, 0, 1.926159501075745
18, 46, 0, 0.9760563373565674
18, 47, 0, 4.27940559387207
18, 48, 0, 2.297208309173584
18, 49, 0, 4.053291320800781
19, 0, 0, 3.574248790740967
19, 1, 0, 5.018806457519531
19, 2, 0, 3.260379791259766
19, 3, 0, 0.5941925048828125
19, 4, 0, 4.889004707336426
19, 5, 0, 2.921134471893311
19, 6, 0, 1.651248455047607
19, 7, 0, 2.576166152954102
19, 8, 0, 2.724159479141235
19, 9, 0, 2.785034656524658
19, 10, 0, 2.857186079025269
19, 11, 0, 3.55475926399231
19, 12, 0, 2.634644031524658
19, 13, 0, 5.906136035919189
19, 14, 0, 3.83751654624939
19, 15, 0, 1.962678551673889
19, 16, 0, 1.358239531517029
19, 17, 0, 2.302474737167358
19, 18, 0, 1.680248737335205
19, 19, 0, 2.247620582580566
19, 20, 0, 3.586921453475952
19, 21, 0, 2.298617362976074
19, 22, 0, 2.863756656646729
19, 23, 0, 0.9352033138275146
19, 24, 0, 2.296121120452881
19, 25, 0, 1.644895553588867
19, 26, 0, 1.313077449798584
19, 27, 0, 3.530076503753662
19, 28, 0, 5.313418865203857
19, 29, 0, 1.954082369804382
19, 30, 0, 3.336107492446899
19, 31, 0, 2.307934045791626
19, 32, 0, 3.618652105331421
19, 33, 0, 2.525325536727905
19, 34, 0, 3.700328350067139
19, 35, 0, 3.287471294403076
19, 36, 0, 2.911675691604614
19, 37, 0, 4.230287551879883
19, 38, 0, 3.525506258010864
19, 39, 0, 2.609543800354004
19, 40, 0, 3.319375276565552
19, 41, 0, 2.860969066619873
19, 42, 0, 3.319074630737305
19, 43, 0, 1.855074524879456
19, 44, 0, 2.950284481048584
19, 45, 0, 2.916354894638062
19, 46, 0, 2.644336223602295
19, 47, 0, 1.957579255104065
19, 48, 0, 1.957115769386292
19, 49, 0, 2.003758907318115
20, 0, 0, 1.267995595932007
20, 1, 0, 4.216150283813477
20, 2, 0, 2.292968273162842
20, 3, 0, 2.700499534606934
20, 4, 0, 4.319905757904053
20, 5, 0, 2.872572183609009
20, 6, 0, 5.235604763031006
20, 7, 0, 2.285683393478394
20, 8, 0, 1.955471277236938
20, 9, 0, 2.887884855270386
20, 10, 0, 5.328580856323242
20, 11, 0, 2.267743110656738
20, 12, 0, 3.019073724746704
20, 13, 0, 2.848374605178833
20, 14, 0, 1.580584168434143
20, 15, 0, 2.95686936378479
20, 16, 0, 2.30175256729126
20, 17, 0, 3.312336921691895
20, 18, 0, 3.375201225280762
20, 19, 0, 2.253055572509766
20, 20, 0, 0.9538633227348328
20, 21, 0, 3.168341398239136
20, 22, 0, 2.616535902023315
20, 23, 0, 1.268516540527344
20, 24, 0, 4.713353633880615
20, 25, 0, 2.217951059341431
20, 26, 0, 2.965494871139526
20, 27, 0, 4.240397930145264
20, 28, 0, 2.006960868835449
20, 29, 0, 3.980901479721069
20, 30, 0, 2.248412370681763
20, 31, 0, 2.225844860076904
20, 32, 0, 2.337776184082031
20, 33, 0, 2.628482341766357
20, 34, 0, 1.236102223396301
20, 35, 0, 3.215662956237793
20, 36, 0, 1.58973503112793
20, 37, 0, 2.684210300445557
20, 38, 0, 3.20782732963562
20, 39, 0, 2.633606433868408
20, 40, 0, 2.947925806045532
20, 41, 0, 2.187947034835815
20, 42, 0, 3.737254619598389
20, 43, 0, 1.996566772460938
20, 44, 0, 2.936429977416992
20, 45, 0, 3.29741644859314
20, 46, 0, 3.279435873031616
20, 47, 0, 3.000478506088257
20, 48, 0, 3.114338636398315
20, 49, 0, 2.615670442581177
21, 0, 0, 5.017452716827393
21, 1, 0, 5.238582611083984
21, 2, 0, 2.939767599105835
21, 3, 0, 3.28767204284668
21, 4, 0, 3.185631990432739
