# TOPAS Version: 3.7
# Parameter File: main
# Results for scorer dose
# Scored in component: Patch
# X in 50 bins of 0.0002 cm
# Y in 50 bins of 0.0002 cm
# Z in 1 bin  of 0.003 cm
# DoseToMedium ( Gy ) : Sum   
0, 0, 0, 131.8745269775391
0, 1, 0, 128.8885040283203
0, 2, 0, 124.2889556884766
0, 3, 0, 126.456428527832
0, 4, 0, 133.02294921875
0, 5, 0, 138.4373931884766
0, 6, 0, 136.0010986328125
0, 7, 0, 133.1559143066406
0, 8, 0, 142.6855621337891
0, 9, 0, 131.2342376708984
0, 10, 0, 126.1065368652344
0, 11, 0, 140.5289459228516
0, 12, 0, 127.2432098388672
0, 13, 0, 125.8847122192383
0, 14, 0, 129.6249694824219
0, 15, 0, 127.7703857421875
0, 16, 0, 127.5448303222656
0, 17, 0, 140.8798522949219
0, 18, 0, 116.5868606567383
0, 19, 0, 123.3367691040039
0, 20, 0, 137.4668121337891
0, 21, 0, 117.3067779541016
0, 22, 0, 123.7602615356445
0, 23, 0, 135.0630035400391
0, 24, 0, 131.4776763916016
0, 25, 0, 126.1521835327148
0, 26, 0, 134.6032257080078
0, 27, 0, 123.951530456543
0, 28, 0, 122.3591613769531
0, 29, 0, 127.358528137207
0, 30, 0, 138.4683837890625
0, 31, 0, 142.5069122314453
0, 32, 0, 140.8443756103516
0, 33, 0, 132.1129608154297
0, 34, 0, 131.2749633789062
0, 35, 0, 132.0088500976562
0, 36, 0, 126.7846221923828
0, 37, 0, 132.2363128662109
0, 38, 0, 139.3901977539062
0, 39, 0, 127.8349304199219
0, 40, 0, 129.5071868896484
0, 41, 0, 132.1942596435547
0, 42, 0, 124.184196472168
0, 43, 0, 131.2637329101562
0, 44, 0, 127.7709121704102
0, 45, 0, 128.11181640625
0, 46, 0, 141.9511566162109
0, 47, 0, 139.7194213867188
0, 48, 0, 136.7886657714844
0, 49, 0, 117.3166275024414
1, 0, 0, 135.6079864501953
1, 1, 0, 126.4143981933594
1, 2, 0, 127.9212036132812
1, 3, 0, 137.7642669677734
1, 4, 0, 134.7877349853516
1, 5, 0, 132.88525390625
1, 6, 0, 119.3629989624023
1, 7, 0, 124.7991790771484
1, 8, 0, 126.2925796508789
1, 9, 0, 133.6295623779297
1, 10, 0, 134.8838806152344
1, 11, 0, 128.7924346923828
1, 12, 0, 129.9434204101562
1, 13, 0, 131.9987182617188
1, 14, 0, 138.9974975585938
1, 15, 0, 120.3389129638672
1, 16, 0, 126.4533233642578
1, 17, 0, 123.2684097290039
1, 18, 0, 120.4266738891602
1, 19, 0, 128.7344207763672
1, 20, 0, 132.8448638916016
1, 21, 0, 147.1563568115234
1, 22, 0, 134.7280883789062
1, 23, 0, 122.1182556152344
1, 24, 0, 123.1841049194336
1, 25, 0, 131.4827728271484
1, 26, 0, 134.0930328369141
1, 27, 0, 126.0647659301758
1, 28, 0, 136.1843109130859
1, 29, 0, 140.1793060302734
1, 30, 0, 126.8062057495117
1, 31, 0, 131.6094055175781
1, 32, 0, 131.6695709228516
1, 33, 0, 125.9695129394531
1, 34, 0, 119.3403778076172
1, 35, 0, 133.0335693359375
1, 36, 0, 132.0524749755859
1, 37, 0, 134.51611328125
1, 38, 0, 128.8747253417969
1, 39, 0, 129.7159271240234
1, 40, 0, 126.3473663330078
1, 41, 0, 133.1139526367188
1, 42, 0, 122.13623046875
1, 43, 0, 128.0988006591797
1, 44, 0, 121.8209838867188
1, 45, 0, 131.6914520263672
1, 46, 0, 132.9540252685547
1, 47, 0, 143.2287445068359
1, 48, 0, 135.8358459472656
1, 49, 0, 138.8277435302734
2, 0, 0, 134.3938598632812
2, 1, 0, 128.3261260986328
2, 2, 0, 131.0943756103516
2, 3, 0, 124.5170288085938
2, 4, 0, 131.3317108154297
2, 5, 0, 130.1732940673828
2, 6, 0, 129.1521606445312
2, 7, 0, 133.5906066894531
2, 8, 0, 135.7460479736328
2, 9, 0, 129.6841583251953
2, 10, 0, 143.8801879882812
2, 11, 0, 130.9674530029297
2, 12, 0, 123.2806854248047
2, 13, 0, 127.5557632446289
2, 14, 0, 120.675422668457
2, 15, 0, 129.3915405273438
2, 16, 0, 120.5278244018555
2, 17, 0, 123.0801239013672
2, 18, 0, 131.3346710205078
2, 19, 0, 134.8353424072266
2, 20, 0, 137.8541717529297
2, 21, 0, 131.8496704101562
2, 22, 0, 121.2684860229492
2, 23, 0, 138.1221923828125
2, 24, 0, 138.7901306152344
2, 25, 0, 130.6370239257812
2, 26, 0, 132.6363067626953
2, 27, 0, 133.3881225585938
2, 28, 0, 132.2654724121094
2, 29, 0, 127.8148803710938
2, 30, 0, 128.4337310791016
2, 31, 0, 136.4997863769531
2, 32, 0, 130.3833923339844
2, 33, 0, 124.3964614868164
2, 34, 0, 128.7402801513672
2, 35, 0, 122.3980331420898
2, 36, 0, 127.270637512207
2, 37, 0, 136.3708648681641
2, 38, 0, 131.8879089355469
2, 39, 0, 123.7367782592773
2, 40, 0, 134.5123443603516
2, 41, 0, 130.547119140625
2, 42, 0, 129.7094116210938
2, 43, 0, 133.888671875
2, 44, 0, 135.1301574707031
2, 45, 0, 139.2403259277344
2, 46, 0, 140.3169555664062
2, 47, 0, 124.2889785766602
2, 48, 0, 130.4839630126953
2, 49, 0, 136.1362152099609
3, 0, 0, 124.3151473999023
3, 1, 0, 124.4996566772461
3, 2, 0, 129.9013519287109
3, 3, 0, 131.4683532714844
3, 4, 0, 127.0579681396484
3, 5, 0, 131.4498901367188
3, 6, 0, 120.817512512207
3, 7, 0, 126.2512817382812
3, 8, 0, 128.3857574462891
3, 9, 0, 132.4302215576172
3, 10, 0, 122.4798736572266
3, 11, 0, 139.0514678955078
3, 12, 0, 120.2169494628906
3, 13, 0, 123.2037582397461
3, 14, 0, 131.8205108642578
3, 15, 0, 133.3380737304688
3, 16, 0, 128.5704956054688
3, 17, 0, 118.0693283081055
3, 18, 0, 126.9636917114258
3, 19, 0, 129.6401672363281
3, 20, 0, 121.7562484741211
3, 21, 0, 125.9801330566406
3, 22, 0, 130.7975311279297
3, 23, 0, 120.2125015258789
3, 24, 0, 133.0620880126953
3, 25, 0, 126.5410461425781
3, 26, 0, 128.7579956054688
3, 27, 0, 133.6973114013672
3, 28, 0, 130.719970703125
3, 29, 0, 137.0205688476562
3, 30, 0, 124.1047134399414
3, 31, 0, 135.1847076416016
3, 32, 0, 133.0145416259766
3, 33, 0, 132.3453979492188
3, 34, 0, 137.5064697265625
3, 35, 0, 131.3943481445312
3, 36, 0, 126.9463348388672
3, 37, 0, 132.0506134033203
3, 38, 0, 126.3873977661133
3, 39, 0, 138.0550842285156
3, 40, 0, 138.6039276123047
3, 41, 0, 131.7032012939453
3, 42, 0, 117.053825378418
3, 43, 0, 136.0616607666016
3, 44, 0, 121.2773818969727
3, 45, 0, 127.7912139892578
3, 46, 0, 133.7669982910156
3, 47, 0, 130.3609619140625
3, 48, 0, 137.9267730712891
3, 49, 0, 127.0571899414062
4, 0, 0, 125.4573974609375
4, 1, 0, 145.0266876220703
4, 2, 0, 144.1458282470703
4, 3, 0, 126.0408782958984
4, 4, 0, 128.33154296875
4, 5, 0, 131.2728271484375
4, 6, 0, 130.1591796875
4, 7, 0, 133.7092742919922
4, 8, 0, 134.13134765625
4, 9, 0, 136.7610931396484
4, 10, 0, 120.2066116333008
4, 11, 0, 130.6472778320312
4, 12, 0, 126.4836959838867
4, 13, 0, 131.8548889160156
4, 14, 0, 138.09521484375
4, 15, 0, 130.032470703125
4, 16, 0, 122.3056793212891
4, 17, 0, 134.6970977783203
4, 18, 0, 130.990966796875
4, 19, 0, 119.1324996948242
4, 20, 0, 125.3422622680664
4, 21, 0, 135.4798278808594
4, 22, 0, 133.9434661865234
4, 23, 0, 126.6665115356445
4, 24, 0, 121.4367980957031
4, 25, 0, 131.0926818847656
4, 26, 0, 137.7359619140625
4, 27, 0, 130.9541778564453
4, 28, 0, 134.3152008056641
4, 29, 0, 129.1974182128906
4, 30, 0, 123.395378112793
4, 31, 0, 132.62451171875
4, 32, 0, 145.9545288085938
4, 33, 0, 131.2696380615234
4, 34, 0, 128.2841491699219
4, 35, 0, 126.6755981445312
4, 36, 0, 122.3202438354492
4, 37, 0, 121.0785293579102
4, 38, 0, 132.2159118652344
4, 39, 0, 128.5885009765625
4, 40, 0, 133.5406188964844
4, 41, 0, 124.780387878418
4, 42, 0, 133.6979522705078
4, 43, 0, 126.4630432128906
4, 44, 0, 127.8933029174805
4, 45, 0, 131.1635284423828
4, 46, 0, 123.3047943115234
4, 47, 0, 123.4050369262695
4, 48, 0, 124.7733001708984
4, 49, 0, 129.2828826904297
5, 0, 0, 120.5347137451172
5, 1, 0, 122.4585266113281
5, 2, 0, 129.3170318603516
5, 3, 0, 138.4815673828125
5, 4, 0, 127.2192687988281
5, 5, 0, 133.3859100341797
5, 6, 0, 122.7661590576172
5, 7, 0, 135.8526458740234
5, 8, 0, 133.8372497558594
5, 9, 0, 131.3273773193359
5, 10, 0, 116.7133636474609
5, 11, 0, 130.6491241455078
5, 12, 0, 125.7635879516602
5, 13, 0, 142.3035583496094
5, 14, 0, 121.1762542724609
5, 15, 0, 133.7076110839844
5, 16, 0, 125.3998565673828
5, 17, 0, 117.0129089355469
5, 18, 0, 130.9511108398438
5, 19, 0, 131.3053283691406
5, 20, 0, 131.3751525878906
5, 21, 0, 137.0327758789062
5, 22, 0, 141.5263824462891
5, 23, 0, 123.2704772949219
5, 24, 0, 124.6736450195312
5, 25, 0, 137.8266754150391
5, 26, 0, 114.0510330200195
5, 27, 0, 139.3989562988281
5, 28, 0, 113.1926040649414
5, 29, 0, 130.9443359375
5, 30, 0, 119.4804840087891
5, 31, 0, 139.2536315917969
5, 32, 0, 133.8166198730469
5, 33, 0, 137.7808380126953
5, 34, 0, 133.5322113037109
5, 35, 0, 134.0436706542969
5, 36, 0, 131.2918243408203
5, 37, 0, 140.5267486572266
5, 38, 0, 134.3919067382812
5, 39, 0, 136.1059875488281
5, 40, 0, 129.2469329833984
5, 41, 0, 131.1549530029297
5, 42, 0, 137.7062683105469
5, 43, 0, 142.0821075439453
5, 44, 0, 139.2996063232422
5, 45, 0, 118.5465545654297
5, 46, 0, 132.2941589355469
5, 47, 0, 122.7997131347656
5, 48, 0, 130.1849670410156
5, 49, 0, 122.3702926635742
6, 0, 0, 120.5728759765625
6, 1, 0, 131.0301513671875
6, 2, 0, 133.2883453369141
6, 3, 0, 136.2012023925781
6, 4, 0, 116.0477066040039
6, 5, 0, 128.0048217773438
6, 6, 0, 135.9479675292969
6, 7, 0, 134.5855407714844
6, 8, 0, 133.8934173583984
6, 9, 0, 129.70263671875
6, 10, 0, 142.3298187255859
6, 11, 0, 133.1236877441406
6, 12, 0, 124.9303817749023
6, 13, 0, 118.3100128173828
6, 14, 0, 137.6324310302734
6, 15, 0, 135.2259063720703
6, 16, 0, 132.0744323730469
6, 17, 0, 126.1181335449219
6, 18, 0, 136.4148559570312
6, 19, 0, 130.3898162841797
6, 20, 0, 129.1030731201172
6, 21, 0, 140.6578979492188
6, 22, 0, 131.8422393798828
6, 23, 0, 139.3186340332031
6, 24, 0, 137.0889587402344
6, 25, 0, 140.1669311523438
6, 26, 0, 136.1724700927734
6, 27, 0, 143.4176788330078
6, 28, 0, 125.7833251953125
6, 29, 0, 132.1266479492188
6, 30, 0, 126.3281021118164
6, 31, 0, 136.0553131103516
6, 32, 0, 130.6377410888672
6, 33, 0, 124.4104843139648
6, 34, 0, 117.20166015625
6, 35, 0, 133.6337280273438
6, 36, 0, 130.4774780273438
6, 37, 0, 137.7135467529297
6, 38, 0, 123.5447006225586
6, 39, 0, 131.5558471679688
6, 40, 0, 122.9291076660156
6, 41, 0, 136.5730285644531
6, 42, 0, 125.6090087890625
6, 43, 0, 127.0775756835938
6, 44, 0, 128.5357513427734
6, 45, 0, 123.1253662109375
6, 46, 0, 119.8719711303711
6, 47, 0, 132.5623626708984
6, 48, 0, 130.7165222167969
6, 49, 0, 138.6529846191406
7, 0, 0, 125.0221786499023
7, 1, 0, 129.6480255126953
7, 2, 0, 134.0585327148438
7, 3, 0, 141.4930267333984
7, 4, 0, 120.9960098266602
7, 5, 0, 132.21533203125
7, 6, 0, 127.0353622436523
7, 7, 0, 132.2871856689453
7, 8, 0, 137.1614379882812
7, 9, 0, 123.1543502807617
7, 10, 0, 129.2363586425781
7, 11, 0, 135.7608795166016
7, 12, 0, 132.3181610107422
7, 13, 0, 120.6313171386719
7, 14, 0, 124.3832778930664
7, 15, 0, 128.3035278320312
7, 16, 0, 118.157844543457
7, 17, 0, 126.425666809082
7, 18, 0, 137.46826171875
7, 19, 0, 122.9414978027344
7, 20, 0, 135.7059326171875
7, 21, 0, 130.3110809326172
7, 22, 0, 129.9459228515625
7, 23, 0, 118.0018157958984
7, 24, 0, 123.4781646728516
7, 25, 0, 134.0189056396484
7, 26, 0, 134.9456939697266
7, 27, 0, 131.4110412597656
7, 28, 0, 127.5974426269531
7, 29, 0, 145.3190460205078
7, 30, 0, 138.8152160644531
7, 31, 0, 126.5514678955078
7, 32, 0, 135.5692901611328
7, 33, 0, 130.8963623046875
7, 34, 0, 138.0982360839844
7, 35, 0, 108.3910446166992
7, 36, 0, 131.923583984375
7, 37, 0, 120.8250350952148
7, 38, 0, 127.4047927856445
7, 39, 0, 132.8169708251953
7, 40, 0, 134.5215454101562
7, 41, 0, 139.8860321044922
7, 42, 0, 121.4636077880859
7, 43, 0, 131.5719757080078
7, 44, 0, 124.558464050293
7, 45, 0, 135.2097625732422
7, 46, 0, 126.7133483886719
7, 47, 0, 137.1554718017578
7, 48, 0, 135.6867828369141
7, 49, 0, 125.2075881958008
8, 0, 0, 134.6284942626953
8, 1, 0, 134.5729675292969
8, 2, 0, 131.4868011474609
8, 3, 0, 122.6933822631836
8, 4, 0, 131.5378265380859
8, 5, 0, 133.4207916259766
8, 6, 0, 126.1759338378906
8, 7, 0, 124.7494354248047
8, 8, 0, 131.7257995605469
8, 9, 0, 140.6247406005859
8, 10, 0, 127.6637496948242
8, 11, 0, 123.4142074584961
8, 12, 0, 132.2368774414062
8, 13, 0, 141.5552673339844
8, 14, 0, 131.5132141113281
8, 15, 0, 123.5203247070312
8, 16, 0, 120.7666320800781
8, 17, 0, 140.3318328857422
8, 18, 0, 129.4732666015625
8, 19, 0, 135.6062927246094
8, 20, 0, 127.8738250732422
8, 21, 0, 137.4141693115234
8, 22, 0, 143.9996490478516
8, 23, 0, 123.9174118041992
8, 24, 0, 129.4512176513672
8, 25, 0, 127.8161010742188
8, 26, 0, 117.8384552001953
8, 27, 0, 133.8780670166016
8, 28, 0, 139.4866485595703
8, 29, 0, 123.045539855957
8, 30, 0, 121.6351776123047
8, 31, 0, 126.5949783325195
8, 32, 0, 141.9818420410156
8, 33, 0, 138.002197265625
8, 34, 0, 138.0491790771484
8, 35, 0, 121.7922515869141
8, 36, 0, 123.2710418701172
8, 37, 0, 126.1319732666016
8, 38, 0, 121.7967987060547
8, 39, 0, 138.6367645263672
8, 40, 0, 129.3521118164062
8, 41, 0, 125.1621551513672
8, 42, 0, 131.7470397949219
8, 43, 0, 129.3947143554688
8, 44, 0, 130.6187133789062
8, 45, 0, 138.3633575439453
8, 46, 0, 142.6110992431641
8, 47, 0, 131.4957885742188
8, 48, 0, 129.136962890625
8, 49, 0, 125.065055847168
9, 0, 0, 131.7032012939453
9, 1, 0, 125.0767517089844
9, 2, 0, 127.4443206787109
9, 3, 0, 139.2585906982422
9, 4, 0, 124.2228469848633
9, 5, 0, 136.8475341796875
9, 6, 0, 131.427490234375
9, 7, 0, 125.3081817626953
9, 8, 0, 126.6016464233398
9, 9, 0, 132.5890350341797
9, 10, 0, 125.8278656005859
9, 11, 0, 120.7721328735352
9, 12, 0, 133.6070404052734
9, 13, 0, 133.0955505371094
9, 14, 0, 125.2872772216797
9, 15, 0, 137.0176391601562
9, 16, 0, 125.6994934082031
9, 17, 0, 138.7607421875
9, 18, 0, 123.2306365966797
9, 19, 0, 136.6206512451172
9, 20, 0, 134.9814300537109
9, 21, 0, 129.0927276611328
9, 22, 0, 125.9052505493164
9, 23, 0, 125.4711303710938
9, 24, 0, 128.2510833740234
9, 25, 0, 140.5643157958984
9, 26, 0, 125.8497695922852
9, 27, 0, 117.5051574707031
9, 28, 0, 129.9098815917969
9, 29, 0, 129.0835113525391
9, 30, 0, 120.263671875
9, 31, 0, 121.4060745239258
9, 32, 0, 138.1995544433594
9, 33, 0, 137.7591094970703
9, 34, 0, 123.299560546875
9, 35, 0, 132.1414184570312
9, 36, 0, 131.9268646240234
9, 37, 0, 136.0105895996094
9, 38, 0, 131.4951019287109
9, 39, 0, 142.73876953125
9, 40, 0, 124.0078506469727
9, 41, 0, 129.5110931396484
9, 42, 0, 138.2405395507812
9, 43, 0, 122.7962875366211
9, 44, 0, 127.2056427001953
9, 45, 0, 132.1327514648438
9, 46, 0, 139.4535369873047
9, 47, 0, 118.9469223022461
9, 48, 0, 130.4271240234375
9, 49, 0, 129.4298095703125
10, 0, 0, 130.8658294677734
10, 1, 0, 128.4674835205078
10, 2, 0, 134.6294708251953
10, 3, 0, 130.9953155517578
10, 4, 0, 129.5786285400391
10, 5, 0, 125.9499816894531
10, 6, 0, 127.4874801635742
10, 7, 0, 121.1567764282227
10, 8, 0, 134.3864135742188
10, 9, 0, 119.8249664306641
10, 10, 0, 135.4814453125
10, 11, 0, 113.3428955078125
10, 12, 0, 125.9987564086914
10, 13, 0, 135.0913391113281
10, 14, 0, 129.5422515869141
10, 15, 0, 136.7382049560547
10, 16, 0, 119.5843353271484
10, 17, 0, 135.764404296875
10, 18, 0, 127.3274154663086
10, 19, 0, 129.5212860107422
10, 20, 0, 136.4727630615234
10, 21, 0, 136.9028167724609
10, 22, 0, 121.8497695922852
10, 23, 0, 131.1673889160156
10, 24, 0, 124.6590118408203
10, 25, 0, 128.3506011962891
10, 26, 0, 130.9281005859375
10, 27, 0, 131.3323516845703
10, 28, 0, 139.0071563720703
10, 29, 0, 130.1556396484375
10, 30, 0, 144.7893676757812
10, 31, 0, 134.5550384521484
10, 32, 0, 128.5248260498047
10, 33, 0, 135.3709411621094
10, 34, 0, 137.5399780273438
10, 35, 0, 131.1724853515625
10, 36, 0, 132.5861511230469
10, 37, 0, 132.5485992431641
10, 38, 0, 128.8672332763672
10, 39, 0, 133.9386596679688
10, 40, 0, 134.4586181640625
10, 41, 0, 129.270751953125
10, 42, 0, 122.4133682250977
10, 43, 0, 132.2961578369141
10, 44, 0, 128.9069519042969
10, 45, 0, 124.3991317749023
10, 46, 0, 127.8287734985352
10, 47, 0, 135.489013671875
10, 48, 0, 117.2048263549805
10, 49, 0, 122.4691772460938
11, 0, 0, 137.443115234375
11, 1, 0, 136.7048492431641
11, 2, 0, 128.2511901855469
11, 3, 0, 129.0759124755859
11, 4, 0, 126.0749053955078
11, 5, 0, 127.5790481567383
11, 6, 0, 135.0344543457031
11, 7, 0, 135.1410522460938
11, 8, 0, 127.7324905395508
11, 9, 0, 127.8246917724609
11, 10, 0, 141.9489898681641
11, 11, 0, 128.5401153564453
11, 12, 0, 136.5611267089844
11, 13, 0, 134.0372467041016
11, 14, 0, 132.2024536132812
11, 15, 0, 141.9936218261719
11, 16, 0, 125.5180892944336
11, 17, 0, 136.2015380859375
11, 18, 0, 132.4786834716797
11, 19, 0, 139.4856872558594
11, 20, 0, 139.7208862304688
11, 21, 0, 126.551025390625
11, 22, 0, 144.7097015380859
11, 23, 0, 131.6403961181641
11, 24, 0, 131.6246490478516
11, 25, 0, 122.3037719726562
11, 26, 0, 135.9047546386719
11, 27, 0, 128.2802581787109
11, 28, 0, 126.9962997436523
11, 29, 0, 129.8342590332031
11, 30, 0, 140.5137634277344
11, 31, 0, 129.0099182128906
11, 32, 0, 132.4126129150391
11, 33, 0, 131.1233062744141
11, 34, 0, 131.8906097412109
11, 35, 0, 122.6332702636719
11, 36, 0, 132.0364837646484
11, 37, 0, 132.6927337646484
11, 38, 0, 137.8447723388672
11, 39, 0, 127.1763763427734
11, 40, 0, 130.6775207519531
11, 41, 0, 126.8073883056641
11, 42, 0, 130.0511627197266
11, 43, 0, 133.4112701416016
11, 44, 0, 130.4324645996094
11, 45, 0, 134.0971374511719
11, 46, 0, 114.5927886962891
11, 47, 0, 128.4250183105469
11, 48, 0, 135.1729888916016
11, 49, 0, 135.3361968994141
12, 0, 0, 139.587646484375
12, 1, 0, 116.7949371337891
12, 2, 0, 134.1532287597656
12, 3, 0, 131.9471588134766
12, 4, 0, 123.8818817138672
12, 5, 0, 140.1721801757812
12, 6, 0, 118.0803298950195
12, 7, 0, 122.8903579711914
12, 8, 0, 119.0032653808594
12, 9, 0, 130.4559783935547
12, 10, 0, 119.5859298706055
12, 11, 0, 123.923942565918
12, 12, 0, 120.2487564086914
12, 13, 0, 131.3782806396484
12, 14, 0, 136.1500701904297
12, 15, 0, 134.9409942626953
12, 16, 0, 134.1396331787109
12, 17, 0, 126.904296875
12, 18, 0, 121.2737045288086
12, 19, 0, 135.0316925048828
12, 20, 0, 131.8644866943359
12, 21, 0, 125.8080215454102
12, 22, 0, 132.2352142333984
12, 23, 0, 123.0212097167969
12, 24, 0, 122.6923828125
12, 25, 0, 131.5908355712891
12, 26, 0, 128.5909271240234
12, 27, 0, 122.406379699707
12, 28, 0, 133.57177734375
12, 29, 0, 120.540153503418
12, 30, 0, 141.0819549560547
12, 31, 0, 131.0044860839844
12, 32, 0, 131.1679992675781
12, 33, 0, 129.5154724121094
12, 34, 0, 138.236328125
12, 35, 0, 136.8350677490234
12, 36, 0, 134.3911285400391
12, 37, 0, 135.3756103515625
12, 38, 0, 131.7299499511719
12, 39, 0, 132.3854064941406
12, 40, 0, 140.2353820800781
12, 41, 0, 134.9228057861328
12, 42, 0, 134.9012756347656
12, 43, 0, 136.0751495361328
12, 44, 0, 133.4034576416016
12, 45, 0, 136.1575469970703
12, 46, 0, 131.3482360839844
12, 47, 0, 138.5690307617188
12, 48, 0, 135.9174041748047
12, 49, 0, 122.485725402832
13, 0, 0, 119.802131652832
13, 1, 0, 127.6616592407227
13, 2, 0, 127.7411880493164
13, 3, 0, 127.8998870849609
13, 4, 0, 138.9706726074219
13, 5, 0, 122.5724563598633
13, 6, 0, 122.0175552368164
13, 7, 0, 120.6728897094727
13, 8, 0, 116.1164855957031
13, 9, 0, 136.8437194824219
13, 10, 0, 120.4346313476562
13, 11, 0, 139.4490814208984
13, 12, 0, 124.554573059082
13, 13, 0, 122.9527587890625
13, 14, 0, 138.5615997314453
13, 15, 0, 127.6427154541016
13, 16, 0, 138.5338745117188
13, 17, 0, 136.094482421875
13, 18, 0, 120.1429901123047
13, 19, 0, 139.3298797607422
13, 20, 0, 124.4730834960938
13, 21, 0, 116.3641662597656
13, 22, 0, 131.7947540283203
13, 23, 0, 137.5193939208984
13, 24, 0, 123.8303985595703
13, 25, 0, 137.2616119384766
13, 26, 0, 135.4540710449219
13, 27, 0, 124.6591567993164
13, 28, 0, 122.7261810302734
13, 29, 0, 134.8890228271484
13, 30, 0, 114.4256362915039
13, 31, 0, 141.2330169677734
13, 32, 0, 127.1687393188477
13, 33, 0, 127.2185287475586
13, 34, 0, 139.4207153320312
13, 35, 0, 132.5284576416016
13, 36, 0, 124.60791015625
13, 37, 0, 129.2263641357422
13, 38, 0, 122.6653366088867
13, 39, 0, 131.5657196044922
13, 40, 0, 121.8349227905273
13, 41, 0, 135.8130187988281
13, 42, 0, 116.9024429321289
13, 43, 0, 122.4118804931641
13, 44, 0, 137.2931060791016
13, 45, 0, 126.9959030151367
13, 46, 0, 116.4109420776367
13, 47, 0, 123.3705673217773
13, 48, 0, 125.6220245361328
13, 49, 0, 131.5596618652344
14, 0, 0, 135.1102600097656
14, 1, 0, 131.6325073242188
14, 2, 0, 123.3802795410156
14, 3, 0, 148.1332550048828
14, 4, 0, 128.9797668457031
14, 5, 0, 131.4330139160156
14, 6, 0, 125.2897109985352
14, 7, 0, 142.9707183837891
14, 8, 0, 131.2389831542969
14, 9, 0, 139.8621978759766
14, 10, 0, 127.6099853515625
14, 11, 0, 127.5098571777344
14, 12, 0, 125.2223968505859
14, 13, 0, 120.9722442626953
14, 14, 0, 128.6321716308594
14, 15, 0, 125.6856536865234
14, 16, 0, 136.1918029785156
14, 17, 0, 125.9663925170898
14, 18, 0, 127.5822296142578
14, 19, 0, 134.9817504882812
14, 20, 0, 137.1815643310547
14, 21, 0, 138.0229644775391
14, 22, 0, 125.9951095581055
14, 23, 0, 121.7609252929688
14, 24, 0, 130.240478515625
14, 25, 0, 130.6578063964844
14, 26, 0, 135.9132995605469
14, 27, 0, 128.9747161865234
14, 28, 0, 133.2578125
14, 29, 0, 146.728515625
14, 30, 0, 127.2985229492188
14, 31, 0, 133.5650177001953
14, 32, 0, 137.5335693359375
14, 33, 0, 127.3301239013672
14, 34, 0, 123.4651641845703
14, 35, 0, 128.3195648193359
14, 36, 0, 124.6106643676758
14, 37, 0, 132.3219451904297
14, 38, 0, 129.1003112792969
14, 39, 0, 127.5033874511719
14, 40, 0, 128.7647399902344
14, 41, 0, 124.9638366699219
14, 42, 0, 135.3465423583984
14, 43, 0, 130.8758850097656
14, 44, 0, 123.6764907836914
14, 45, 0, 125.7960891723633
14, 46, 0, 121.3797988891602
14, 47, 0, 124.7467803955078
14, 48, 0, 120.6205368041992
14, 49, 0, 142.6450042724609
15, 0, 0, 119.203857421875
15, 1, 0, 139.8530578613281
15, 2, 0, 131.1942901611328
15, 3, 0, 131.1120910644531
15, 4, 0, 137.2867584228516
15, 5, 0, 134.6205749511719
15, 6, 0, 147.2625122070312
15, 7, 0, 132.6476287841797
15, 8, 0, 132.7908935546875
15, 9, 0, 140.5647277832031
15, 10, 0, 123.6696319580078
15, 11, 0, 132.8426055908203
15, 12, 0, 129.7268524169922
15, 13, 0, 135.9570007324219
15, 14, 0, 131.6657257080078
15, 15, 0, 126.6147079467773
15, 16, 0, 119.717887878418
15, 17, 0, 120.1143798828125
15, 18, 0, 126.0050582885742
15, 19, 0, 126.542724609375
15, 20, 0, 127.3594741821289
15, 21, 0, 134.6593780517578
15, 22, 0, 142.0281219482422
15, 23, 0, 123.4891128540039
15, 24, 0, 129.0482025146484
15, 25, 0, 140.8506927490234
15, 26, 0, 132.0310821533203
15, 27, 0, 135.9575500488281
15, 28, 0, 136.4903106689453
15, 29, 0, 133.9220428466797
15, 30, 0, 126.3764266967773
15, 31, 0, 129.9302215576172
15, 32, 0, 136.5996856689453
15, 33, 0, 142.8012847900391
15, 34, 0, 134.627685546875
15, 35, 0, 130.6689910888672
15, 36, 0, 127.5670928955078
15, 37, 0, 122.6308288574219
15, 38, 0, 122.2289047241211
15, 39, 0, 132.3623657226562
15, 40, 0, 124.1318130493164
15, 41, 0, 133.796142578125
15, 42, 0, 133.3529357910156
15, 43, 0, 133.3036651611328
15, 44, 0, 141.8351440429688
15, 45, 0, 134.2290649414062
15, 46, 0, 126.1381988525391
15, 47, 0, 127.1687698364258
15, 48, 0, 125.3312225341797
15, 49, 0, 124.0133819580078
16, 0, 0, 124.145378112793
16, 1, 0, 128.0790557861328
16, 2, 0, 138.6976318359375
16, 3, 0, 127.028564453125
16, 4, 0, 124.0875549316406
16, 5, 0, 129.1114196777344
16, 6, 0, 125.8581619262695
16, 7, 0, 133.3426666259766
16, 8, 0, 137.3667602539062
16, 9, 0, 139.5925445556641
16, 10, 0, 122.0959396362305
16, 11, 0, 126.9252319335938
16, 12, 0, 129.9866333007812
16, 13, 0, 131.3668060302734
16, 14, 0, 118.2963943481445
16, 15, 0, 120.9467315673828
16, 16, 0, 137.0959777832031
16, 17, 0, 139.5966644287109
16, 18, 0, 140.9099731445312
16, 19, 0, 134.1608123779297
16, 20, 0, 131.8217926025391
16, 21, 0, 126.2535705566406
16, 22, 0, 124.8598327636719
16, 23, 0, 127.4813461303711
16, 24, 0, 114.9578399658203
16, 25, 0, 126.8160171508789
16, 26, 0, 113.4763793945312
16, 27, 0, 130.3682708740234
16, 28, 0, 135.9899139404297
16, 29, 0, 126.6645202636719
16, 30, 0, 134.6919097900391
16, 31, 0, 131.9138488769531
16, 32, 0, 141.2531280517578
16, 33, 0, 130.6367340087891
16, 34, 0, 120.3624725341797
16, 35, 0, 117.779426574707
16, 36, 0, 132.4179534912109
16, 37, 0, 126.8705215454102
16, 38, 0, 133.5284118652344
16, 39, 0, 133.6148376464844
16, 40, 0, 123.6799087524414
16, 41, 0, 125.2674102783203
16, 42, 0, 141.3089447021484
16, 43, 0, 139.0849761962891
16, 44, 0, 146.2841644287109
16, 45, 0, 126.3092269897461
16, 46, 0, 141.8936462402344
16, 47, 0, 131.1326293945312
16, 48, 0, 121.6340789794922
16, 49, 0, 127.60009765625
17, 0, 0, 126.3611450195312
17, 1, 0, 121.703125
17, 2, 0, 140.7825469970703
17, 3, 0, 119.3249893188477
17, 4, 0, 133.7448272705078
17, 5, 0, 135.1357421875
17, 6, 0, 128.9046783447266
17, 7, 0, 134.9680938720703
17, 8, 0, 128.4820251464844
17, 9, 0, 133.1631317138672
17, 10, 0, 142.7060089111328
17, 11, 0, 113.0151596069336
17, 12, 0, 122.3653411865234
17, 13, 0, 134.6395568847656
17, 14, 0, 127.2296295166016
17, 15, 0, 137.2611541748047
17, 16, 0, 137.6643829345703
17, 17, 0, 133.6326293945312
17, 18, 0, 133.1266479492188
17, 19, 0, 116.3550186157227
17, 20, 0, 125.0718307495117
17, 21, 0, 126.831428527832
17, 22, 0, 137.1956939697266
17, 23, 0, 127.4426574707031
17, 24, 0, 130.8921813964844
17, 25, 0, 125.6498489379883
17, 26, 0, 121.3510284423828
17, 27, 0, 123.8482360839844
17, 28, 0, 122.6606979370117
17, 29, 0, 133.9358673095703
17, 30, 0, 131.0276184082031
17, 31, 0, 122.2048797607422
17, 32, 0, 124.8594207763672
17, 33, 0, 128.2276153564453
17, 34, 0, 131.2366638183594
17, 35, 0, 139.0016174316406
17, 36, 0, 142.8461608886719
17, 37, 0, 131.2992401123047
17, 38, 0, 132.1228637695312
17, 39, 0, 128.9979858398438
17, 40, 0, 133.4123687744141
17, 41, 0, 137.7234497070312
17, 42, 0, 137.8100280761719
17, 43, 0, 132.1031188964844
17, 44, 0, 132.1244812011719
17, 45, 0, 119.1732025146484
17, 46, 0, 132.3708038330078
17, 47, 0, 132.7953643798828
17, 48, 0, 129.5886535644531
17, 49, 0, 134.8675384521484
18, 0, 0, 124.3306884765625
18, 1, 0, 136.0534820556641
18, 2, 0, 134.3934020996094
18, 3, 0, 120.6064682006836
18, 4, 0, 130.3755645751953
18, 5, 0, 131.95068359375
18, 6, 0, 126.1268844604492
18, 7, 0, 142.9564971923828
18, 8, 0, 130.7559204101562
18, 9, 0, 129.7747344970703
18, 10, 0, 132.1280364990234
18, 11, 0, 133.9037628173828
18, 12, 0, 124.9090728759766
18, 13, 0, 131.3672637939453
18, 14, 0, 127.2856674194336
18, 15, 0, 126.7473983764648
18, 16, 0, 135.5091400146484
18, 17, 0, 134.3330230712891
18, 18, 0, 130.698974609375
18, 19, 0, 131.5536193847656
18, 20, 0, 127.0044860839844
18, 21, 0, 133.0833740234375
18, 22, 0, 129.4395751953125
18, 23, 0, 124.0682373046875
18, 24, 0, 134.5179595947266
18, 25, 0, 135.9801330566406
18, 26, 0, 127.6940155029297
18, 27, 0, 124.4639739990234
18, 28, 0, 132.4800872802734
18, 29, 0, 139.2350158691406
18, 30, 0, 119.3861312866211
18, 31, 0, 120.9017715454102
18, 32, 0, 127.361328125
18, 33, 0, 128.8636016845703
18, 34, 0, 139.062255859375
18, 35, 0, 128.8532104492188
18, 36, 0, 131.3556976318359
18, 37, 0, 130.8990173339844
18, 38, 0, 134.1866455078125
18, 39, 0, 124.817138671875
18, 40, 0, 141.4427337646484
18, 41, 0, 130.4760589599609
18, 42, 0, 129.8347015380859
18, 43, 0, 130.2689971923828
18, 44, 0, 132.0140075683594
18, 45, 0, 111.9610977172852
18, 46, 0, 121.9159317016602
18, 47, 0, 135.3188018798828
18, 48, 0, 136.0763397216797
18, 49, 0, 135.2325134277344
19, 0, 0, 137.2290802001953
19, 1, 0, 130.1775360107422
19, 2, 0, 134.7107849121094
19, 3, 0, 132.1403961181641
19, 4, 0, 127.7957916259766
19, 5, 0, 126.1437911987305
19, 6, 0, 128.9057312011719
19, 7, 0, 126.0542907714844
19, 8, 0, 128.0454864501953
19, 9, 0, 122.3807373046875
19, 10, 0, 123.5588912963867
19, 11, 0, 129.1138000488281
19, 12, 0, 137.2877197265625
19, 13, 0, 135.8161163330078
19, 14, 0, 135.1710510253906
19, 15, 0, 123.1435775756836
19, 16, 0, 126.8661041259766
19, 17, 0, 134.0772857666016
19, 18, 0, 139.2660369873047
19, 19, 0, 128.3154144287109
19, 20, 0, 147.2973022460938
19, 21, 0, 135.4657135009766
19, 22, 0, 133.9179840087891
19, 23, 0, 125.3436050415039
19, 24, 0, 125.6514511108398
19, 25, 0, 123.4190673828125
19, 26, 0, 126.3305053710938
19, 27, 0, 120.122802734375
19, 28, 0, 133.5326995849609
19, 29, 0, 118.6143188476562
19, 30, 0, 136.8676147460938
19, 31, 0, 138.9735107421875
19, 32, 0, 132.4598083496094
19, 33, 0, 141.352294921875
19, 34, 0, 137.2492828369141
19, 35, 0, 140.3163452148438
19, 36, 0, 122.7037353515625
19, 37, 0, 134.8869018554688
19, 38, 0, 130.1323089599609
19, 39, 0, 116.4452590942383
19, 40, 0, 138.6141815185547
19, 41, 0, 141.3531646728516
19, 42, 0, 128.2913513183594
19, 43, 0, 119.634147644043
19, 44, 0, 138.6212158203125
19, 45, 0, 135.1125946044922
19, 46, 0, 135.8701934814453
19, 47, 0, 130.3213043212891
19, 48, 0, 129.0709686279297
19, 49, 0, 140.5558013916016
20, 0, 0, 139.1953735351562
20, 1, 0, 138.9790649414062
20, 2, 0, 124.7573852539062
20, 3, 0, 127.3151321411133
20, 4, 0, 131.4060363769531
20, 5, 0, 130.2722473144531
20, 6, 0, 132.7771148681641
20, 7, 0, 120.7837753295898
20, 8, 0, 133.7891998291016
20, 9, 0, 135.2179260253906
20, 10, 0, 133.4073181152344
20, 11, 0, 131.3573455810547
20, 12, 0, 137.0825042724609
20, 13, 0, 128.7041015625
20, 14, 0, 133.2388153076172
20, 15, 0, 122.0333786010742
20, 16, 0, 123.9067077636719
20, 17, 0, 132.6707763671875
20, 18, 0, 130.9726867675781
20, 19, 0, 126.9952926635742
20, 20, 0, 121.0549392700195
20, 21, 0, 124.509880065918
20, 22, 0, 121.5600891113281
20, 23, 0, 140.7144775390625
20, 24, 0, 137.4893035888672
20, 25, 0, 130.7734527587891
20, 26, 0, 130.1450653076172
20, 27, 0, 134.4106140136719
20, 28, 0, 115.7698135375977
20, 29, 0, 127.7294158935547
20, 30, 0, 133.0056457519531
20, 31, 0, 137.1327056884766
20, 32, 0, 129.6779937744141
20, 33, 0, 132.9890899658203
20, 34, 0, 122.2237701416016
20, 35, 0, 137.4417572021484
20, 36, 0, 133.5107116699219
20, 37, 0, 146.8839263916016
20, 38, 0, 140.9748687744141
20, 39, 0, 117.4849700927734
20, 40, 0, 126.2633590698242
20, 41, 0, 135.8583374023438
20, 42, 0, 135.6151580810547
20, 43, 0, 132.0419921875
20, 44, 0, 124.5339126586914
20, 45, 0, 127.4804000854492
20, 46, 0, 139.7242279052734
20, 47, 0, 122.881950378418
20, 48, 0, 129.4423828125
20, 49, 0, 127.8192901611328
21, 0, 0, 136.4818572998047
21, 1, 0, 130.2551727294922
21, 2, 0, 126.7560272216797
21, 3, 0, 129.8573455810547
21, 4, 0, 132.2936248779297
21, 5, 0, 129.0734405517578
21, 6, 0, 137.3065490722656
