# TOPAS Version: 3.7
# Parameter File: main
# Results for scorer dose
# Scored in component: Patch
# X in 50 bins of 0.0002 cm
# Y in 50 bins of 0.0002 cm
# Z in 1 bin  of 0.003 cm
# DoseToMedium ( Gy ) : Sum   
0, 0, 0, 3.495365619659424
0, 1, 0, 3.783272504806519
0, 2, 0, 1.942570209503174
0, 3, 0, 4.165585994720459
0, 4, 0, 3.769501209259033
0, 5, 0, 3.272676229476929
0, 6, 0, 4.484219074249268
0, 7, 0, 4.882970333099365
0, 8, 0, 3.765619516372681
0, 9, 0, 4.873587608337402
0, 10, 0, 1.302417039871216
0, 11, 0, 5.847452163696289
0, 12, 0, 1.29333221912384
0, 13, 0, 4.27386999130249
0, 14, 0, 2.001733064651489
0, 15, 0, 4.266057968139648
0, 16, 0, 4.655806064605713
0, 17, 0, 2.903711795806885
0, 18, 0, 3.731670141220093
0, 19, 0, 3.380087852478027
0, 20, 0, 4.915604591369629
0, 21, 0, 3.848648548126221
0, 22, 0, 3.596680641174316
0, 23, 0, 2.593535184860229
0, 24, 0, 3.132861852645874
0, 25, 0, 3.104197263717651
0, 26, 0, 5.258379459381104
0, 27, 0, 2.526544332504272
0, 28, 0, 2.239307165145874
0, 29, 0, 4.650594234466553
0, 30, 0, 4.977100372314453
0, 31, 0, 3.556943655014038
0, 32, 0, 3.268480539321899
0, 33, 0, 1.335685133934021
0, 34, 0, 2.973257303237915
0, 35, 0, 2.974243640899658
0, 36, 0, 2.584450721740723
0, 37, 0, 3.246343612670898
0, 38, 0, 3.019599914550781
0, 39, 0, 3.2746741771698
0, 40, 0, 0.9626357555389404
0, 41, 0, 3.694363355636597
0, 42, 0, 3.532167196273804
0, 43, 0, 3.218607187271118
0, 44, 0, 3.484296798706055
0, 45, 0, 3.511677265167236
0, 46, 0, 4.233572006225586
0, 47, 0, 4.191842555999756
0, 48, 0, 2.541016340255737
0, 49, 0, 3.478871583938599
1, 0, 0, 1.850436449050903
1, 1, 0, 4.915763854980469
1, 2, 0, 4.290054321289062
1, 3, 0, 3.569983720779419
1, 4, 0, 4.099266529083252
1, 5, 0, 5.655088901519775
1, 6, 0, 2.566751956939697
1, 7, 0, 4.208927154541016
1, 8, 0, 3.017659187316895
1, 9, 0, 3.093828916549683
1, 10, 0, 2.297043085098267
1, 11, 0, 4.256600856781006
1, 12, 0, 1.292790174484253
1, 13, 0, 2.974652528762817
1, 14, 0, 2.906878232955933
1, 15, 0, 2.341937065124512
1, 16, 0, 2.589432954788208
1, 17, 0, 3.21765923500061
1, 18, 0, 3.947445154190063
1, 19, 0, 4.171667098999023
1, 20, 0, 4.232775688171387
1, 21, 0, 3.813511610031128
1, 22, 0, 2.893222332000732
1, 23, 0, 2.57912015914917
1, 24, 0, 1.893110513687134
1, 25, 0, 4.80994701385498
1, 26, 0, 3.258206129074097
1, 27, 0, 2.933881521224976
1, 28, 0, 2.872846126556396
1, 29, 0, 3.457724094390869
1, 30, 0, 3.314579486846924
1, 31, 0, 1.259479641914368
1, 32, 0, 3.368430614471436
1, 33, 0, 2.966820001602173
1, 34, 0, 1.975886464118958
1, 35, 0, 4.38679838180542
1, 36, 0, 2.232317209243774
1, 37, 0, 2.321558237075806
1, 38, 0, 3.162444114685059
1, 39, 0, 2.666804313659668
1, 40, 0, 3.628647565841675
1, 41, 0, 4.39461088180542
1, 42, 0, 2.611731767654419
1, 43, 0, 2.025890827178955
1, 44, 0, 4.611830234527588
1, 45, 0, 4.192023277282715
1, 46, 0, 4.229610443115234
1, 47, 0, 2.230014562606812
1, 48, 0, 1.361652731895447
1, 49, 0, 3.608506917953491
2, 0, 0, 3.554227113723755
2, 1, 0, 4.354147911071777
2, 2, 0, 2.954062700271606
2, 3, 0, 3.525790929794312
2, 4, 0, 3.046042680740356
2, 5, 0, 1.905282020568848
2, 6, 0, 1.629466652870178
2, 7, 0, 4.384818553924561
2, 8, 0, 1.61526346206665
2, 9, 0, 2.609598398208618
2, 10, 0, 5.190761566162109
2, 11, 0, 5.899899482727051
2, 12, 0, 4.548398971557617
2, 13, 0, 2.591218948364258
2, 14, 0, 3.635573148727417
2, 15, 0, 4.488520622253418
2, 16, 0, 2.640178680419922
2, 17, 0, 3.650446176528931
2, 18, 0, 4.381687164306641
2, 19, 0, 5.354937076568604
2, 20, 0, 2.274745464324951
2, 21, 0, 3.156070709228516
2, 22, 0, 2.864031791687012
2, 23, 0, 1.957011580467224
2, 24, 0, 3.127372741699219
2, 25, 0, 2.279170989990234
2, 26, 0, 2.640689134597778
2, 27, 0, 2.938284158706665
2, 28, 0, 2.595253229141235
2, 29, 0, 2.212939977645874
2, 30, 0, 2.924718141555786
2, 31, 0, 1.937156319618225
2, 32, 0, 1.324512124061584
2, 33, 0, 1.652785778045654
2, 34, 0, 2.915498495101929
2, 35, 0, 1.335378766059875
2, 36, 0, 1.684663891792297
2, 37, 0, 2.885191679000854
2, 38, 0, 3.976482152938843
2, 39, 0, 3.917512893676758
2, 40, 0, 2.929271936416626
2, 41, 0, 3.570876836776733
2, 42, 0, 4.03078556060791
2, 43, 0, 3.902560472488403
2, 44, 0, 0.9631779789924622
2, 45, 0, 3.837602138519287
2, 46, 0, 2.900125741958618
2, 47, 0, 2.036919116973877
2, 48, 0, 4.293206214904785
2, 49, 0, 3.588814258575439
3, 0, 0, 3.337258338928223
3, 1, 0, 2.95362663269043
3, 2, 0, 3.606594324111938
3, 3, 0, 2.621437549591064
3, 4, 0, 2.610166311264038
3, 5, 0, 3.18497633934021
3, 6, 0, 3.250030755996704
3, 7, 0, 3.285512208938599
3, 8, 0, 4.052183628082275
3, 9, 0, 3.917569398880005
3, 10, 0, 2.816646099090576
3, 11, 0, 4.193921566009521
3, 12, 0, 4.235879421234131
3, 13, 0, 2.271289825439453
3, 14, 0, 2.216968536376953
3, 15, 0, 2.626570463180542
3, 16, 0, 3.617754936218262
3, 17, 0, 1.312721848487854
3, 18, 0, 1.924336433410645
3, 19, 0, 2.274304628372192
3, 20, 0, 4.249683380126953
3, 21, 0, 2.557788848876953
3, 22, 0, 3.949944496154785
3, 23, 0, 3.692353010177612
3, 24, 0, 1.602214217185974
3, 25, 0, 4.545192241668701
3, 26, 0, 3.166686773300171
3, 27, 0, 4.52150297164917
3, 28, 0, 2.289207220077515
3, 29, 0, 3.292486429214478
3, 30, 0, 2.839545726776123
3, 31, 0, 3.916354179382324
3, 32, 0, 2.234261512756348
3, 33, 0, 4.676244735717773
3, 34, 0, 5.127579212188721
3, 35, 0, 4.558066368103027
3, 36, 0, 2.248932361602783
3, 37, 0, 5.043820858001709
3, 38, 0, 3.013759613037109
3, 39, 0, 6.664621829986572
3, 40, 0, 6.286192417144775
3, 41, 0, 3.189412832260132
3, 42, 0, 3.99079966545105
3, 43, 0, 4.160036087036133
3, 44, 0, 2.833657026290894
3, 45, 0, 3.888345718383789
3, 46, 0, 2.243351459503174
3, 47, 0, 2.923151016235352
3, 48, 0, 2.986423015594482
3, 49, 0, 2.534655809402466
4, 0, 0, 4.440308570861816
4, 1, 0, 2.600369930267334
4, 2, 0, 2.949235439300537
4, 3, 0, 4.474133014678955
4, 4, 0, 4.596821308135986
4, 5, 0, 2.285743236541748
4, 6, 0, 3.813236951828003
4, 7, 0, 4.304624080657959
4, 8, 0, 5.598823070526123
4, 9, 0, 5.207664012908936
4, 10, 0, 2.267278671264648
4, 11, 0, 5.460471630096436
4, 12, 0, 2.829560041427612
4, 13, 0, 4.778970241546631
4, 14, 0, 4.546891689300537
4, 15, 0, 4.089828968048096
4, 16, 0, 3.558844566345215
4, 17, 0, 4.922677516937256
4, 18, 0, 3.959226608276367
4, 19, 0, 5.48849630355835
4, 20, 0, 4.208759307861328
4, 21, 0, 3.324484825134277
4, 22, 0, 2.155969142913818
4, 23, 0, 3.33366322517395
4, 24, 0, 3.249788761138916
4, 25, 0, 3.928943157196045
4, 26, 0, 2.281470775604248
4, 27, 0, 5.210322856903076
4, 28, 0, 2.864831924438477
4, 29, 0, 4.531912803649902
4, 30, 0, 1.969378709793091
4, 31, 0, 3.850856065750122
4, 32, 0, 2.252315521240234
4, 33, 0, 3.586311817169189
4, 34, 0, 2.594321012496948
4, 35, 0, 4.304969310760498
4, 36, 0, 2.628152132034302
4, 37, 0, 2.642785549163818
4, 38, 0, 2.583674192428589
4, 39, 0, 3.511882305145264
4, 40, 0, 4.858415603637695
4, 41, 0, 2.487773656845093
4, 42, 0, 2.953556299209595
4, 43, 0, 2.617130279541016
4, 44, 0, 2.583014488220215
4, 45, 0, 2.65934419631958
4, 46, 0, 3.564387083053589
4, 47, 0, 2.599274873733521
4, 48, 0, 3.834759950637817
4, 49, 0, 3.592255115509033
5, 0, 0, 3.244197845458984
5, 1, 0, 2.560677289962769
5, 2, 0, 2.23478627204895
5, 3, 0, 2.54975438117981
5, 4, 0, 2.307671308517456
5, 5, 0, 3.458648443222046
5, 6, 0, 3.631929159164429
5, 7, 0, 3.222535371780396
5, 8, 0, 2.381873846054077
5, 9, 0, 4.556419849395752
5, 10, 0, 1.909693121910095
5, 11, 0, 3.711483955383301
5, 12, 0, 3.559821844100952
5, 13, 0, 1.946349024772644
5, 14, 0, 1.263050675392151
5, 15, 0, 2.281037569046021
5, 16, 0, 1.915421366691589
5, 17, 0, 3.153979063034058
5, 18, 0, 1.909178376197815
5, 19, 0, 2.607491731643677
5, 20, 0, 4.900303363800049
5, 21, 0, 4.22684907913208
5, 22, 0, 2.637218952178955
5, 23, 0, 3.602138519287109
5, 24, 0, 4.57749080657959
5, 25, 0, 3.267860651016235
5, 26, 0, 3.015188217163086
5, 27, 0, 2.998017072677612
5, 28, 0, 4.230386734008789
5, 29, 0, 2.645304203033447
5, 30, 0, 2.580739259719849
5, 31, 0, 4.090322494506836
5, 32, 0, 3.309741258621216
5, 33, 0, 2.607229471206665
5, 34, 0, 1.566128015518188
5, 35, 0, 4.377712726593018
5, 36, 0, 3.554846525192261
5, 37, 0, 3.587224960327148
5, 38, 0, 1.98150360584259
5, 39, 0, 4.236703872680664
5, 40, 0, 2.983566522598267
5, 41, 0, 1.961084723472595
5, 42, 0, 4.32088565826416
5, 43, 0, 3.298082828521729
5, 44, 0, 3.13220477104187
5, 45, 0, 3.598301887512207
5, 46, 0, 5.457328796386719
5, 47, 0, 2.870797872543335
5, 48, 0, 2.279261589050293
5, 49, 0, 4.6431884765625
6, 0, 0, 4.487518310546875
6, 1, 0, 2.891138553619385
6, 2, 0, 4.264607906341553
6, 3, 0, 3.478855609893799
6, 4, 0, 1.929551005363464
6, 5, 0, 3.903235673904419
6, 6, 0, 5.225216388702393
6, 7, 0, 4.863441944122314
6, 8, 0, 5.27142333984375
6, 9, 0, 2.917375087738037
6, 10, 0, 4.468932151794434
6, 11, 0, 4.171973705291748
6, 12, 0, 3.403754234313965
6, 13, 0, 4.228389263153076
6, 14, 0, 2.952872514724731
6, 15, 0, 2.012033939361572
6, 16, 0, 1.968663811683655
6, 17, 0, 1.920827150344849
6, 18, 0, 4.238162040710449
6, 19, 0, 2.631876945495605
6, 20, 0, 3.862305641174316
6, 21, 0, 2.686572313308716
6, 22, 0, 3.593832492828369
6, 23, 0, 2.951854467391968
6, 24, 0, 3.95742392539978
6, 25, 0, 2.951895475387573
6, 26, 0, 2.606779813766479
6, 27, 0, 2.195709228515625
6, 28, 0, 3.631571054458618
6, 29, 0, 2.660572052001953
6, 30, 0, 4.155080318450928
6, 31, 0, 3.29370379447937
6, 32, 0, 2.304777145385742
6, 33, 0, 4.342069625854492
6, 34, 0, 4.770669460296631
6, 35, 0, 1.987639904022217
6, 36, 0, 4.497678279876709
6, 37, 0, 2.290026187896729
6, 38, 0, 3.593693494796753
6, 39, 0, 2.401502132415771
6, 40, 0, 4.046555519104004
6, 41, 0, 1.303687810897827
6, 42, 0, 3.31407618522644
6, 43, 0, 3.22468090057373
6, 44, 0, 3.294529438018799
6, 45, 0, 2.962935447692871
6, 46, 0, 2.982829332351685
6, 47, 0, 3.905975103378296
6, 48, 0, 1.949579834938049
6, 49, 0, 4.005326747894287
7, 0, 0, 3.226305246353149
7, 1, 0, 4.868416786193848
7, 2, 0, 4.356466293334961
7, 3, 0, 2.023124694824219
7, 4, 0, 0.6549902558326721
7, 5, 0, 4.413788318634033
7, 6, 0, 6.86848783493042
7, 7, 0, 4.578776359558105
7, 8, 0, 4.564032077789307
7, 9, 0, 4.273022174835205
7, 10, 0, 2.211797714233398
7, 11, 0, 4.642584800720215
7, 12, 0, 2.569606781005859
7, 13, 0, 1.209378004074097
7, 14, 0, 3.235306739807129
7, 15, 0, 2.624403238296509
7, 16, 0, 1.932896852493286
7, 17, 0, 2.947343111038208
7, 18, 0, 1.614309549331665
7, 19, 0, 3.797240495681763
7, 20, 0, 2.141318559646606
7, 21, 0, 1.961617946624756
7, 22, 0, 3.907645225524902
7, 23, 0, 2.70917272567749
7, 24, 0, 2.647498369216919
7, 25, 0, 1.311204433441162
7, 26, 0, 2.647002458572388
7, 27, 0, 2.888552904129028
7, 28, 0, 3.22575569152832
7, 29, 0, 4.23165225982666
7, 30, 0, 1.261474609375
7, 31, 0, 2.309326410293579
7, 32, 0, 3.894260406494141
7, 33, 0, 4.011277198791504
7, 34, 0, 1.917652130126953
7, 35, 0, 3.53024959564209
7, 36, 0, 2.932326316833496
7, 37, 0, 1.988503575325012
7, 38, 0, 4.841852188110352
7, 39, 0, 4.012011528015137
7, 40, 0, 3.791260480880737
7, 41, 0, 3.069070100784302
7, 42, 0, 3.575816631317139
7, 43, 0, 1.948266863822937
7, 44, 0, 2.60006046295166
7, 45, 0, 2.819980144500732
7, 46, 0, 1.518535733222961
7, 47, 0, 3.629182815551758
7, 48, 0, 3.106087923049927
7, 49, 0, 2.953452110290527
8, 0, 0, 2.23822808265686
8, 1, 0, 3.563002824783325
8, 2, 0, 5.197106838226318
8, 3, 0, 1.923049807548523
8, 4, 0, 2.356133937835693
8, 5, 0, 3.192248106002808
8, 6, 0, 2.58449912071228
8, 7, 0, 5.531184673309326
8, 8, 0, 1.919478297233582
8, 9, 0, 3.040071249008179
8, 10, 0, 1.675518274307251
8, 11, 0, 1.258291721343994
8, 12, 0, 5.566360473632812
8, 13, 0, 3.344736099243164
8, 14, 0, 4.233818531036377
8, 15, 0, 3.264458179473877
8, 16, 0, 2.30530858039856
8, 17, 0, 3.556591033935547
8, 18, 0, 4.182027816772461
8, 19, 0, 3.979290008544922
8, 20, 0, 3.204854488372803
8, 21, 0, 2.042943239212036
8, 22, 0, 3.185300350189209
8, 23, 0, 2.615856885910034
8, 24, 0, 2.668532609939575
8, 25, 0, 3.250741243362427
8, 26, 0, 3.258930444717407
8, 27, 0, 2.273170232772827
8, 28, 0, 3.212996482849121
8, 29, 0, 5.012835025787354
8, 30, 0, 3.919356822967529
8, 31, 0, 2.993502378463745
8, 32, 0, 2.265182018280029
8, 33, 0, 4.861270904541016
8, 34, 0, 2.576849460601807
8, 35, 0, 2.392025947570801
8, 36, 0, 2.013887882232666
8, 37, 0, 2.929214239120483
8, 38, 0, 2.723684072494507
8, 39, 0, 3.949968338012695
8, 40, 0, 3.444365262985229
8, 41, 0, 3.526986122131348
8, 42, 0, 3.737113475799561
8, 43, 0, 3.266849040985107
8, 44, 0, 2.678527593612671
8, 45, 0, 3.170480489730835
8, 46, 0, 4.998850345611572
8, 47, 0, 2.887204170227051
8, 48, 0, 1.91755211353302
8, 49, 0, 3.073639154434204
9, 0, 0, 3.266864538192749
9, 1, 0, 1.611379384994507
9, 2, 0, 3.808339595794678
9, 3, 0, 3.547910451889038
9, 4, 0, 4.649897575378418
9, 5, 0, 4.405616283416748
9, 6, 0, 4.264469146728516
9, 7, 0, 3.605343580245972
9, 8, 0, 2.661200046539307
9, 9, 0, 1.954870223999023
9, 10, 0, 1.942089796066284
9, 11, 0, 2.638806343078613
9, 12, 0, 3.910823822021484
9, 13, 0, 3.088457584381104
9, 14, 0, 3.915840864181519
9, 15, 0, 1.946583867073059
9, 16, 0, 3.782246351242065
9, 17, 0, 3.288288593292236
9, 18, 0, 3.549689292907715
9, 19, 0, 3.68181848526001
9, 20, 0, 3.547597169876099
9, 21, 0, 3.879370212554932
9, 22, 0, 2.526939630508423
9, 23, 0, 2.583657503128052
9, 24, 0, 2.901014089584351
9, 25, 0, 5.795723915100098
9, 26, 0, 3.957299947738647
9, 27, 0, 2.702035665512085
9, 28, 0, 5.12959623336792
9, 29, 0, 3.241052389144897
9, 30, 0, 2.979158163070679
9, 31, 0, 2.503200054168701
9, 32, 0, 2.207554817199707
9, 33, 0, 1.606130719184875
9, 34, 0, 3.279812335968018
9, 35, 0, 3.611778736114502
9, 36, 0, 1.654484748840332
9, 37, 0, 4.925604343414307
9, 38, 0, 3.277410268783569
9, 39, 0, 2.555689811706543
9, 40, 0, 1.934495449066162
9, 41, 0, 4.931334972381592
9, 42, 0, 3.226974964141846
9, 43, 0, 3.843469858169556
9, 44, 0, 5.266218662261963
9, 45, 0, 2.652288198471069
9, 46, 0, 4.599836349487305
9, 47, 0, 3.232701063156128
9, 48, 0, 3.236939430236816
9, 49, 0, 4.426088333129883
10, 0, 0, 3.228429555892944
10, 1, 0, 3.876749753952026
10, 2, 0, 3.967828750610352
10, 3, 0, 1.931094408035278
10, 4, 0, 4.766030788421631
10, 5, 0, 3.897839307785034
10, 6, 0, 2.361027717590332
10, 7, 0, 3.252205610275269
10, 8, 0, 3.897237300872803
10, 9, 0, 4.586868286132812
10, 10, 0, 3.347204208374023
10, 11, 0, 3.638199329376221
10, 12, 0, 2.322364568710327
10, 13, 0, 2.974915981292725
10, 14, 0, 2.608105897903442
10, 15, 0, 5.23570728302002
10, 16, 0, 2.646716594696045
10, 17, 0, 5.272849082946777
10, 18, 0, 2.695282936096191
10, 19, 0, 4.527539730072021
10, 20, 0, 3.273343086242676
10, 21, 0, 4.125436782836914
10, 22, 0, 3.928848743438721
10, 23, 0, 2.924856185913086
10, 24, 0, 4.050722599029541
10, 25, 0, 2.308701276779175
10, 26, 0, 2.977309465408325
10, 27, 0, 3.336282014846802
10, 28, 0, 2.647140502929688
10, 29, 0, 3.202021360397339
10, 30, 0, 2.641568183898926
10, 31, 0, 4.401015281677246
10, 32, 0, 3.216277122497559
10, 33, 0, 2.614600419998169
10, 34, 0, 2.567473411560059
10, 35, 0, 3.846120357513428
10, 36, 0, 2.518733501434326
10, 37, 0, 2.985816717147827
10, 38, 0, 5.027750015258789
10, 39, 0, 2.612230777740479
10, 40, 0, 3.561493158340454
10, 41, 0, 3.333536624908447
10, 42, 0, 2.878415107727051
10, 43, 0, 2.845034599304199
10, 44, 0, 4.262012481689453
10, 45, 0, 3.267297506332397
10, 46, 0, 1.886974692344666
10, 47, 0, 1.94238817691803
10, 48, 0, 2.951447248458862
10, 49, 0, 2.573820829391479
11, 0, 0, 4.178257465362549
11, 1, 0, 5.17828893661499
11, 2, 0, 3.529008388519287
11, 3, 0, 2.219321012496948
11, 4, 0, 2.564695835113525
11, 5, 0, 3.587595224380493
11, 6, 0, 1.930975556373596
11, 7, 0, 4.63278341293335
11, 8, 0, 3.609005451202393
11, 9, 0, 3.622398138046265
11, 10, 0, 3.551768779754639
11, 11, 0, 0.671785831451416
11, 12, 0, 4.481565475463867
11, 13, 0, 4.02044153213501
11, 14, 0, 3.59846019744873
11, 15, 0, 2.890273809432983
11, 16, 0, 2.862667560577393
11, 17, 0, 4.232300758361816
11, 18, 0, 4.171144962310791
11, 19, 0, 3.114640951156616
11, 20, 0, 2.584398746490479
11, 21, 0, 2.883309841156006
11, 22, 0, 2.658391952514648
11, 23, 0, 1.867853999137878
11, 24, 0, 3.843187808990479
11, 25, 0, 2.60555624961853
11, 26, 0, 3.615455627441406
11, 27, 0, 4.56879711151123
11, 28, 0, 3.915911674499512
11, 29, 0, 2.613135814666748
11, 30, 0, 2.901728868484497
11, 31, 0, 1.352423191070557
11, 32, 0, 3.949910879135132
11, 33, 0, 5.035734176635742
11, 34, 0, 2.957293272018433
11, 35, 0, 1.931336522102356
11, 36, 0, 3.78644585609436
11, 37, 0, 4.365521430969238
11, 38, 0, 3.567591667175293
11, 39, 0, 2.929513692855835
11, 40, 0, 3.042622566223145
11, 41, 0, 2.263939619064331
11, 42, 0, 4.066370964050293
11, 43, 0, 3.859970808029175
11, 44, 0, 2.561873197555542
11, 45, 0, 4.586588859558105
11, 46, 0, 5.211892127990723
11, 47, 0, 2.298563480377197
11, 48, 0, 2.989154815673828
11, 49, 0, 4.874640941619873
12, 0, 0, 4.471005916595459
12, 1, 0, 0.942333996295929
12, 2, 0, 4.022012233734131
12, 3, 0, 4.191511154174805
12, 4, 0, 1.009133815765381
12, 5, 0, 4.590835571289062
12, 6, 0, 3.227686882019043
12, 7, 0, 2.978193521499634
12, 8, 0, 1.616039633750916
12, 9, 0, 4.849635124206543
12, 10, 0, 4.884407043457031
12, 11, 0, 3.60611367225647
12, 12, 0, 4.621514797210693
12, 13, 0, 4.604813575744629
12, 14, 0, 3.602388381958008
12, 15, 0, 4.209789276123047
12, 16, 0, 2.963278532028198
12, 17, 0, 2.586727380752563
12, 18, 0, 2.617357730865479
12, 19, 0, 2.931739568710327
12, 20, 0, 2.987322568893433
12, 21, 0, 3.277292966842651
12, 22, 0, 4.136999130249023
12, 23, 0, 2.299325466156006
12, 24, 0, 3.02018666267395
12, 25, 0, 3.16635274887085
12, 26, 0, 5.006546974182129
12, 27, 0, 1.603674650192261
12, 28, 0, 3.940745115280151
12, 29, 0, 2.220642328262329
12, 30, 0, 4.610339641571045
12, 31, 0, 2.303839206695557
12, 32, 0, 2.973401546478271
12, 33, 0, 3.871354341506958
12, 34, 0, 4.884100437164307
12, 35, 0, 3.62807297706604
12, 36, 0, 2.570840358734131
12, 37, 0, 2.845612525939941
12, 38, 0, 3.625340938568115
12, 39, 0, 2.66911506652832
12, 40, 0, 3.635807752609253
12, 41, 0, 1.955345153808594
12, 42, 0, 7.142332077026367
12, 43, 0, 3.508642435073853
12, 44, 0, 4.589636325836182
12, 45, 0, 3.260758876800537
12, 46, 0, 2.976775646209717
12, 47, 0, 3.297531843185425
12, 48, 0, 3.904337167739868
12, 49, 0, 3.19602632522583
13, 0, 0, 3.17127251625061
13, 1, 0, 2.913199663162231
13, 2, 0, 2.29016637802124
13, 3, 0, 2.243427991867065
13, 4, 0, 4.41425609588623
13, 5, 0, 1.908373594284058
13, 6, 0, 5.200743675231934
13, 7, 0, 3.532493114471436
13, 8, 0, 4.608577251434326
13, 9, 0, 4.250739574432373
13, 10, 0, 1.562818288803101
13, 11, 0, 0.9791658520698547
13, 12, 0, 2.346242189407349
13, 13, 0, 1.923505663871765
13, 14, 0, 1.640487909317017
13, 15, 0, 2.184409379959106
13, 16, 0, 3.693206548690796
13, 17, 0, 2.313526391983032
13, 18, 0, 3.563252210617065
13, 19, 0, 3.651304721832275
13, 20, 0, 1.672920107841492
13, 21, 0, 2.613995552062988
13, 22, 0, 4.519794940948486
13, 23, 0, 3.892098665237427
13, 24, 0, 1.918464422225952
13, 25, 0, 4.889018058776855
13, 26, 0, 2.904952764511108
13, 27, 0, 1.942173600196838
13, 28, 0, 4.220256805419922
13, 29, 0, 5.211030006408691
13, 30, 0, 3.247479915618896
13, 31, 0, 1.901164770126343
13, 32, 0, 3.509320020675659
13, 33, 0, 4.035124778747559
13, 34, 0, 4.636777400970459
13, 35, 0, 2.448918342590332
13, 36, 0, 3.270213603973389
13, 37, 0, 2.136917114257812
13, 38, 0, 2.226570606231689
13, 39, 0, 2.885852575302124
13, 40, 0, 1.94866144657135
13, 41, 0, 4.136984825134277
13, 42, 0, 2.605053901672363
13, 43, 0, 1.375705599784851
13, 44, 0, 2.903045415878296
13, 45, 0, 1.939253568649292
13, 46, 0, 2.939750909805298
13, 47, 0, 1.63347315788269
13, 48, 0, 3.877365112304688
13, 49, 0, 2.623258590698242
14, 0, 0, 3.979372978210449
14, 1, 0, 2.250878572463989
14, 2, 0, 3.299825429916382
14, 3, 0, 5.495333194732666
14, 4, 0, 5.187477588653564
14, 5, 0, 3.289477825164795
14, 6, 0, 3.187189340591431
14, 7, 0, 3.157247066497803
14, 8, 0, 2.286588907241821
14, 9, 0, 4.534417629241943
14, 10, 0, 2.574277639389038
14, 11, 0, 4.141507625579834
14, 12, 0, 3.153393030166626
14, 13, 0, 1.306092977523804
14, 14, 0, 2.303127765655518
14, 15, 0, 3.253880977630615
14, 16, 0, 2.659259557723999
14, 17, 0, 4.917691230773926
14, 18, 0, 3.576268911361694
14, 19, 0, 4.608053684234619
14, 20, 0, 3.599332571029663
14, 21, 0, 1.02480685710907
14, 22, 0, 3.597265958786011
14, 23, 0, 2.82328724861145
14, 24, 0, 4.511236190795898
14, 25, 0, 2.725996017456055
14, 26, 0, 3.61958384513855
14, 27, 0, 5.120051383972168
14, 28, 0, 4.92224645614624
14, 29, 0, 3.532119750976562
14, 30, 0, 5.050068855285645
14, 31, 0, 3.974167108535767
14, 32, 0, 3.495641231536865
14, 33, 0, 2.574865579605103
14, 34, 0, 2.902558088302612
14, 35, 0, 2.883985042572021
14, 36, 0, 2.973112106323242
14, 37, 0, 3.895613670349121
14, 38, 0, 1.616201758384705
14, 39, 0, 4.586291313171387
14, 40, 0, 2.661148548126221
14, 41, 0, 2.237777233123779
14, 42, 0, 2.631794214248657
14, 43, 0, 4.46777868270874
14, 44, 0, 2.540222406387329
14, 45, 0, 2.911105155944824
14, 46, 0, 2.988093852996826
14, 47, 0, 4.033797740936279
14, 48, 0, 2.306726932525635
14, 49, 0, 6.367388248443604
15, 0, 0, 3.319827795028687
15, 1, 0, 3.580600261688232
15, 2, 0, 2.616412878036499
15, 3, 0, 4.254844188690186
15, 4, 0, 2.596061944961548
15, 5, 0, 3.562955856323242
15, 6, 0, 2.323408603668213
15, 7, 0, 1.963685750961304
15, 8, 0, 3.530749797821045
15, 9, 0, 2.186387777328491
15, 10, 0, 1.929014563560486
15, 11, 0, 3.513166427612305
15, 12, 0, 3.852957487106323
15, 13, 0, 3.247625827789307
15, 14, 0, 2.954261302947998
15, 15, 0, 3.311192274093628
15, 16, 0, 1.249185562133789
15, 17, 0, 1.582609295845032
15, 18, 0, 3.542384386062622
15, 19, 0, 1.532015204429626
15, 20, 0, 3.225071668624878
15, 21, 0, 4.537819862365723
15, 22, 0, 3.884922742843628
15, 23, 0, 2.560731410980225
15, 24, 0, 3.148360013961792
15, 25, 0, 4.055206298828125
15, 26, 0, 3.923798561096191
15, 27, 0, 4.224983215332031
15, 28, 0, 3.625493288040161
15, 29, 0, 5.491521835327148
15, 30, 0, 4.676533222198486
15, 31, 0, 4.203434467315674
15, 32, 0, 3.022792100906372
15, 33, 0, 2.298179864883423
15, 34, 0, 1.364330768585205
15, 35, 0, 3.2966628074646
15, 36, 0, 3.242430925369263
15, 37, 0, 1.932614088058472
15, 38, 0, 3.998754739761353
15, 39, 0, 1.255468010902405
15, 40, 0, 2.226742029190063
15, 41, 0, 3.18691873550415
15, 42, 0, 1.677419781684875
15, 43, 0, 3.77115797996521
15, 44, 0, 3.218982696533203
15, 45, 0, 2.885875225067139
15, 46, 0, 2.936055421829224
15, 47, 0, 3.579361438751221
15, 48, 0, 3.92425799369812
15, 49, 0, 2.900452375411987
16, 0, 0, 2.936676263809204
16, 1, 0, 3.520108938217163
16, 2, 0, 2.870077133178711
16, 3, 0, 4.289722442626953
16, 4, 0, 2.996963500976562
16, 5, 0, 4.689894676208496
16, 6, 0, 2.47875714302063
16, 7, 0, 4.134350299835205
16, 8, 0, 2.663795232772827
16, 9, 0, 2.907313585281372
16, 10, 0, 3.225003957748413
16, 11, 0, 2.614068746566772
16, 12, 0, 3.860371112823486
16, 13, 0, 4.041475772857666
16, 14, 0, 2.266847133636475
16, 15, 0, 0.3003880679607391
16, 16, 0, 5.241758346557617
16, 17, 0, 2.832289934158325
16, 18, 0, 3.233816146850586
16, 19, 0, 1.850335240364075
16, 20, 0, 1.29402482509613
16, 21, 0, 2.280340671539307
16, 22, 0, 1.928805828094482
16, 23, 0, 2.669421434402466
16, 24, 0, 3.215202331542969
16, 25, 0, 4.279553413391113
16, 26, 0, 0.6852126121520996
16, 27, 0, 1.8504319190979
16, 28, 0, 4.557955741882324
16, 29, 0, 4.476202487945557
16, 30, 0, 2.493069648742676
16, 31, 0, 2.927370071411133
16, 32, 0, 4.526428699493408
16, 33, 0, 2.990639209747314
16, 34, 0, 2.280078649520874
16, 35, 0, 1.296056389808655
16, 36, 0, 3.530572414398193
16, 37, 0, 3.596405267715454
16, 38, 0, 4.308565616607666
16, 39, 0, 3.635421752929688
16, 40, 0, 0.9620567560195923
16, 41, 0, 3.28248405456543
16, 42, 0, 1.986296057701111
16, 43, 0, 3.618427991867065
16, 44, 0, 4.373538494110107
16, 45, 0, 4.253283500671387
16, 46, 0, 4.627876758575439
16, 47, 0, 2.246831655502319
16, 48, 0, 2.813213348388672
16, 49, 0, 1.631840229034424
17, 0, 0, 3.277135848999023
17, 1, 0, 5.205331325531006
17, 2, 0, 3.428752899169922
17, 3, 0, 4.118233203887939
17, 4, 0, 3.520623207092285
17, 5, 0, 3.719840049743652
17, 6, 0, 5.410895347595215
17, 7, 0, 4.306052684783936
17, 8, 0, 2.995646715164185
17, 9, 0, 4.672737598419189
17, 10, 0, 2.365043163299561
17, 11, 0, 3.581507444381714
17, 12, 0, 2.86428427696228
17, 13, 0, 2.906002044677734
17, 14, 0, 2.2872474193573
17, 15, 0, 2.560352563858032
17, 16, 0, 2.920265913009644
17, 17, 0, 3.571593761444092
17, 18, 0, 2.240620136260986
17, 19, 0, 2.976142644882202
17, 20, 0, 1.923745274543762
17, 21, 0, 2.536376953125
17, 22, 0, 3.377230644226074
17, 23, 0, 4.626106739044189
17, 24, 0, 1.970623850822449
17, 25, 0, 3.531731605529785
17, 26, 0, 2.671833515167236
17, 27, 0, 4.52283239364624
17, 28, 0, 1.544467926025391
17, 29, 0, 3.574738740921021
17, 30, 0, 3.170322179794312
17, 31, 0, 2.914031982421875
17, 32, 0, 2.276256799697876
17, 33, 0, 1.594683766365051
17, 34, 0, 4.252015113830566
17, 35, 0, 3.147240877151489
17, 36, 0, 3.822192907333374
17, 37, 0, 2.7130446434021
17, 38, 0, 3.520309448242188
17, 39, 0, 3.98066258430481
17, 40, 0, 4.324637889862061
17, 41, 0, 4.123308181762695
17, 42, 0, 1.912172436714172
17, 43, 0, 4.197556018829346
17, 44, 0, 5.243533134460449
17, 45, 0, 2.008814573287964
17, 46, 0, 3.2208411693573
17, 47, 0, 4.618068218231201
17, 48, 0, 4.226772785186768
17, 49, 0, 3.469350337982178
18, 0, 0, 3.013599872589111
18, 1, 0, 3.211071491241455
18, 2, 0, 3.653803825378418
18, 3, 0, 1.002079606056213
18, 4, 0, 4.819245338439941
18, 5, 0, 4.24216890335083
18, 6, 0, 1.561419606208801
18, 7, 0, 4.304384231567383
18, 8, 0, 4.36546802520752
18, 9, 0, 2.284331321716309
18, 10, 0, 4.978061676025391
18, 11, 0, 2.636540412902832
18, 12, 0, 4.231464385986328
18, 13, 0, 3.353824377059937
18, 14, 0, 4.576370716094971
18, 15, 0, 3.533076763153076
18, 16, 0, 4.524885177612305
18, 17, 0, 4.878890514373779
18, 18, 0, 3.850487947463989
18, 19, 0, 3.501654624938965
18, 20, 0, 3.638587951660156
18, 21, 0, 2.233716249465942
18, 22, 0, 4.177356719970703
18, 23, 0, 1.606306076049805
18, 24, 0, 4.200368404388428
18, 25, 0, 3.984927177429199
18, 26, 0, 3.918302536010742
18, 27, 0, 2.593041658401489
18, 28, 0, 3.849574565887451
18, 29, 0, 3.633794069290161
18, 30, 0, 1.650750756263733
18, 31, 0, 2.969284772872925
18, 32, 0, 3.550637722015381
18, 33, 0, 3.162415742874146
18, 34, 0, 4.195217609405518
18, 35, 0, 2.565237998962402
18, 36, 0, 3.269009828567505
18, 37, 0, 2.912519931793213
18, 38, 0, 3.297825574874878
18, 39, 0, 1.987407326698303
18, 40, 0, 4.715395927429199
18, 41, 0, 1.950854301452637
18, 42, 0, 1.34664523601532
18, 43, 0, 2.558242321014404
18, 44, 0, 1.628468871116638
18, 45, 0, 1.926159501075745
18, 46, 0, 1.306396007537842
18, 47, 0, 4.943007946014404
18, 48, 0, 2.626573801040649
18, 49, 0, 4.728299140930176
19, 0, 0, 4.550337314605713
19, 1, 0, 6.031452655792236
19, 2, 0, 3.590473413467407
19, 3, 0, 0.5941925048828125
19, 4, 0, 5.208060264587402
19, 5, 0, 2.921134471893311
19, 6, 0, 2.320876121520996
19, 7, 0, 2.576166152954102
19, 8, 0, 3.030820846557617
19, 9, 0, 3.823043346405029
19, 10, 0, 3.541184186935425
19, 11, 0, 4.854435920715332
19, 12, 0, 3.291246652603149
19, 13, 0, 5.906136035919189
19, 14, 0, 3.83751654624939
19, 15, 0, 2.257349967956543
19, 16, 0, 2.028765439987183
19, 17, 0, 3.010056257247925
19, 18, 0, 1.680248737335205
19, 19, 0, 2.247620582580566
19, 20, 0, 3.945563316345215
19, 21, 0, 2.659728527069092
19, 22, 0, 3.198684930801392
19, 23, 0, 1.907010316848755
19, 24, 0, 2.296121120452881
19, 25, 0, 1.984686374664307
19, 26, 0, 1.648829817771912
19, 27, 0, 4.196280479431152
19, 28, 0, 6.303127288818359
19, 29, 0, 1.954082369804382
19, 30, 0, 4.061291217803955
19, 31, 0, 2.307934045791626
19, 32, 0, 4.600271701812744
19, 33, 0, 4.151216506958008
19, 34, 0, 4.313607692718506
19, 35, 0, 3.605607509613037
19, 36, 0, 2.911675691604614
19, 37, 0, 4.230287551879883
19, 38, 0, 3.525506258010864
19, 39, 0, 2.609543800354004
19, 40, 0, 3.319375276565552
19, 41, 0, 3.881091594696045
19, 42, 0, 3.632129430770874
19, 43, 0, 1.855074524879456
19, 44, 0, 3.269345760345459
19, 45, 0, 3.595925092697144
19, 46, 0, 2.644336223602295
19, 47, 0, 2.255645513534546
19, 48, 0, 1.957115769386292
19, 49, 0, 2.990058422088623
20, 0, 0, 1.267995595932007
20, 1, 0, 4.216150283813477
20, 2, 0, 2.292968273162842
20, 3, 0, 3.350525856018066
20, 4, 0, 4.655930042266846
20, 5, 0, 3.205356121063232
20, 6, 0, 5.888588428497314
20, 7, 0, 2.60128116607666
20, 8, 0, 2.603144884109497
20, 9, 0, 2.887884855270386
20, 10, 0, 5.646227359771729
20, 11, 0, 2.903169393539429
20, 12, 0, 3.694406270980835
20, 13, 0, 4.174708366394043
20, 14, 0, 1.88271701335907
20, 15, 0, 3.286558389663696
20, 16, 0, 2.59449291229248
20, 17, 0, 3.643570899963379
20, 18, 0, 3.375201225280762
20, 19, 0, 2.619940996170044
20, 20, 0, 0.9538633227348328
20, 21, 0, 3.515467643737793
20, 22, 0, 3.265240430831909
20, 23, 0, 2.242719888687134
20, 24, 0, 5.033975124359131
20, 25, 0, 2.511690616607666
20, 26, 0, 3.588200330734253
20, 27, 0, 4.516833305358887
20, 28, 0, 2.006960868835449
20, 29, 0, 4.630332946777344
20, 30, 0, 3.278782606124878
20, 31, 0, 2.225844860076904
20, 32, 0, 2.337776184082031
20, 33, 0, 2.947044610977173
20, 34, 0, 1.919450163841248
20, 35, 0, 3.861388444900513
20, 36, 0, 1.58973503112793
20, 37, 0, 3.367798566818237
20, 38, 0, 3.20782732963562
20, 39, 0, 2.633606433868408
20, 40, 0, 2.947925806045532
20, 41, 0, 2.187947034835815
20, 42, 0, 4.054482460021973
20, 43, 0, 2.290953159332275
20, 44, 0, 3.289563417434692
20, 45, 0, 4.278003692626953
20, 46, 0, 3.604331254959106
20, 47, 0, 3.302900075912476
20, 48, 0, 3.416047811508179
20, 49, 0, 3.262827634811401
21, 0, 0, 5.639898300170898
21, 1, 0, 5.560334205627441
21, 2, 0, 3.569374322891235
21, 3, 0, 3.910392045974731
21, 4, 0, 3.497478246688843
