# TOPAS Version: 3.7
# Parameter File: main
# Results for scorer dose
# Scored in component: Patch
# X in 50 bins of 0.0002 cm
# Y in 50 bins of 0.0002 cm
# Z in 1 bin  of 0.003 cm
# DoseToMedium ( Gy ) : Sum   
0, 0, 0, 2.483197689056396
0, 1, 0, 3.142227649688721
0, 2, 0, 1.303992986679077
0, 3, 0, 2.552376747131348
0, 4, 0, 2.235053062438965
0, 5, 0, 1.644883275032043
0, 6, 0, 3.226868867874146
0, 7, 0, 3.938915967941284
0, 8, 0, 3.024007797241211
0, 9, 0, 2.646550416946411
0, 10, 0, 1.014152526855469
0, 11, 0, 3.579926490783691
0, 12, 0, 0.6513082385063171
0, 13, 0, 2.640070676803589
0, 14, 0, 1.669295191764832
0, 15, 0, 3.610134601593018
0, 16, 0, 2.030553579330444
0, 17, 0, 1.255954623222351
0, 18, 0, 2.320162296295166
0, 19, 0, 2.032982110977173
0, 20, 0, 2.631559133529663
0, 21, 0, 3.848648548126221
0, 22, 0, 3.2523353099823
0, 23, 0, 1.963874697685242
0, 24, 0, 1.873812317848206
0, 25, 0, 2.441667318344116
0, 26, 0, 2.613114595413208
0, 27, 0, 1.217793941497803
0, 28, 0, 0.9622958898544312
0, 29, 0, 3.330751657485962
0, 30, 0, 3.673509836196899
0, 31, 0, 2.899378299713135
0, 32, 0, 2.32635498046875
0, 33, 0, 0.9903792142868042
0, 34, 0, 1.315498352050781
0, 35, 0, 0.6243124008178711
0, 36, 0, 1.612199425697327
0, 37, 0, 1.977905511856079
0, 38, 0, 1.706253409385681
0, 39, 0, 1.943567156791687
0, 40, 0, 0.6249532103538513
0, 41, 0, 2.660475492477417
0, 42, 0, 3.532167196273804
0, 43, 0, 2.265748977661133
0, 44, 0, 2.283713340759277
0, 45, 0, 2.529610157012939
0, 46, 0, 2.259566783905029
0, 47, 0, 2.269232988357544
0, 48, 0, 1.949932456016541
0, 49, 0, 2.842176914215088
1, 0, 0, 1.850436449050903
1, 1, 0, 2.648772478103638
1, 2, 0, 2.631182432174683
1, 3, 0, 1.623228788375854
1, 4, 0, 3.118088245391846
1, 5, 0, 4.079912185668945
1, 6, 0, 1.2669438123703
1, 7, 0, 1.580526947975159
1, 8, 0, 2.038809776306152
1, 9, 0, 1.855787515640259
1, 10, 0, 1.005524396896362
1, 11, 0, 2.629634618759155
1, 12, 0, 0.9856144785881042
1, 13, 0, 2.604212760925293
1, 14, 0, 1.648280024528503
1, 15, 0, 2.013254880905151
1, 16, 0, 1.949776172637939
1, 17, 0, 2.884108066558838
1, 18, 0, 3.2571702003479
1, 19, 0, 2.867013931274414
1, 20, 0, 2.541929483413696
1, 21, 0, 2.596017122268677
1, 22, 0, 2.278571367263794
1, 23, 0, 1.903910756111145
1, 24, 0, 1.577864527702332
1, 25, 0, 3.243984699249268
1, 26, 0, 2.666947364807129
1, 27, 0, 1.670853018760681
1, 28, 0, 2.17887020111084
1, 29, 0, 1.880121827125549
1, 30, 0, 2.64599609375
1, 31, 0, 0.9427983164787292
1, 32, 0, 2.036082744598389
1, 33, 0, 1.969854354858398
1, 34, 0, 1.663283467292786
1, 35, 0, 2.784207105636597
1, 36, 0, 1.328162431716919
1, 37, 0, 1.280218720436096
1, 38, 0, 3.162444114685059
1, 39, 0, 2.315819501876831
1, 40, 0, 2.607616424560547
1, 41, 0, 2.485983610153198
1, 42, 0, 0.9437298774719238
1, 43, 0, 1.037015318870544
1, 44, 0, 3.296858310699463
1, 45, 0, 3.555552959442139
1, 46, 0, 2.593966722488403
1, 47, 0, 1.615229606628418
1, 48, 0, 0.320223480463028
1, 49, 0, 1.645010471343994
2, 0, 0, 1.966832518577576
2, 1, 0, 2.830318212509155
2, 2, 0, 2.954062700271606
2, 3, 0, 2.905309200286865
2, 4, 0, 2.407781362533569
2, 5, 0, 0.970664381980896
2, 6, 0, 1.297231197357178
2, 7, 0, 3.002171754837036
2, 8, 0, 1.274821400642395
2, 9, 0, 0.6176142692565918
2, 10, 0, 4.529292106628418
2, 11, 0, 3.927350282669067
2, 12, 0, 2.627414703369141
2, 13, 0, 0.9915133714675903
2, 14, 0, 2.317394971847534
2, 15, 0, 3.242855787277222
2, 16, 0, 1.34592068195343
2, 17, 0, 1.656785488128662
2, 18, 0, 2.674332857131958
2, 19, 0, 4.325482368469238
2, 20, 0, 2.274745464324951
2, 21, 0, 2.834380865097046
2, 22, 0, 1.883159041404724
2, 23, 0, 1.957011580467224
2, 24, 0, 2.132335186004639
2, 25, 0, 2.279170989990234
2, 26, 0, 0.6882869601249695
2, 27, 0, 0.9659006595611572
2, 28, 0, 2.299248218536377
2, 29, 0, 1.880065321922302
2, 30, 0, 1.64262068271637
2, 31, 0, 1.634427309036255
2, 32, 0, 0.9663273096084595
2, 33, 0, 0.9542508721351624
2, 34, 0, 1.954167246818542
2, 35, 0, 1.335378766059875
2, 36, 0, 1.001946687698364
2, 37, 0, 2.22683310508728
2, 38, 0, 3.976482152938843
2, 39, 0, 2.602153301239014
2, 40, 0, 2.929271936416626
2, 41, 0, 2.54145884513855
2, 42, 0, 2.997193336486816
2, 43, 0, 3.243450880050659
2, 44, 0, 0.6387441158294678
2, 45, 0, 2.866915702819824
2, 46, 0, 1.238311767578125
2, 47, 0, 2.036919116973877
2, 48, 0, 2.293154954910278
2, 49, 0, 2.603240013122559
3, 0, 0, 2.283801078796387
3, 1, 0, 1.94152045249939
3, 2, 0, 2.299258947372437
3, 3, 0, 0.9680702686309814
3, 4, 0, 2.002654075622559
3, 5, 0, 1.94758665561676
3, 6, 0, 1.675876021385193
3, 7, 0, 2.367626190185547
3, 8, 0, 2.652695894241333
3, 9, 0, 2.570338726043701
3, 10, 0, 2.504820108413696
3, 11, 0, 1.93669605255127
3, 12, 0, 2.889419555664062
3, 13, 0, 1.941115975379944
3, 14, 0, 2.216968536376953
3, 15, 0, 2.297700881958008
3, 16, 0, 2.336573839187622
3, 17, 0, 0.6193599700927734
3, 18, 0, 1.314413666725159
3, 19, 0, 1.973436594009399
3, 20, 0, 2.644034624099731
3, 21, 0, 1.940376758575439
3, 22, 0, 2.294389724731445
3, 23, 0, 2.779887437820435
3, 24, 0, 0.9516915082931519
3, 25, 0, 3.241531610488892
3, 26, 0, 1.559979677200317
3, 27, 0, 2.270241022109985
3, 28, 0, 1.613238573074341
3, 29, 0, 2.323117256164551
3, 30, 0, 2.531450271606445
3, 31, 0, 2.35838770866394
3, 32, 0, 1.243106007575989
3, 33, 0, 4.363704204559326
3, 34, 0, 3.906773567199707
3, 35, 0, 2.572502136230469
3, 36, 0, 1.62641441822052
3, 37, 0, 4.08977222442627
3, 38, 0, 2.710876941680908
3, 39, 0, 5.064227104187012
3, 40, 0, 4.276299476623535
3, 41, 0, 1.901112198829651
3, 42, 0, 2.316856384277344
3, 43, 0, 2.569438695907593
3, 44, 0, 2.512485504150391
3, 45, 0, 2.915652990341187
3, 46, 0, 1.58426558971405
3, 47, 0, 1.022784948348999
3, 48, 0, 2.30771803855896
3, 49, 0, 1.610260248184204
4, 0, 0, 3.807257175445557
4, 1, 0, 1.624207615852356
4, 2, 0, 2.289875745773315
4, 3, 0, 3.825127124786377
4, 4, 0, 2.585015296936035
4, 5, 0, 2.285743236541748
4, 6, 0, 2.872307538986206
4, 7, 0, 3.624419927597046
4, 8, 0, 3.590729475021362
4, 9, 0, 2.620556116104126
4, 10, 0, 0.9467411041259766
4, 11, 0, 2.525147676467896
4, 12, 0, 2.22826361656189
4, 13, 0, 3.820024728775024
4, 14, 0, 3.294177770614624
4, 15, 0, 2.477080345153809
4, 16, 0, 2.295384407043457
4, 17, 0, 3.604651689529419
4, 18, 0, 1.991872787475586
4, 19, 0, 2.894150733947754
4, 20, 0, 3.241983890533447
4, 21, 0, 2.671181201934814
4, 22, 0, 1.561588287353516
4, 23, 0, 2.992991209030151
4, 24, 0, 1.953650712966919
4, 25, 0, 2.617672204971313
4, 26, 0, 0.9621812105178833
4, 27, 0, 2.976042985916138
4, 28, 0, 1.9541335105896
4, 29, 0, 4.21450662612915
4, 30, 0, 0.9918609857559204
4, 31, 0, 1.516406416893005
4, 32, 0, 2.252315521240234
4, 33, 0, 2.245771408081055
4, 34, 0, 1.307991027832031
4, 35, 0, 3.413123369216919
4, 36, 0, 1.982391953468323
4, 37, 0, 2.642785549163818
4, 38, 0, 1.641832947731018
4, 39, 0, 1.918792247772217
4, 40, 0, 2.927210569381714
4, 41, 0, 1.845144391059875
4, 42, 0, 1.340035796165466
4, 43, 0, 0.9262808561325073
4, 44, 0, 2.227844953536987
4, 45, 0, 1.028436422348022
4, 46, 0, 2.642421722412109
4, 47, 0, 1.961063385009766
4, 48, 0, 2.907541990280151
4, 49, 0, 2.340859651565552
5, 0, 0, 2.308602809906006
5, 1, 0, 1.933636546134949
5, 2, 0, 1.304166436195374
5, 3, 0, 2.210937023162842
5, 4, 0, 2.307671308517456
5, 5, 0, 3.152839183807373
5, 6, 0, 2.59336256980896
5, 7, 0, 2.327331781387329
5, 8, 0, 2.023804187774658
5, 9, 0, 3.546463251113892
5, 10, 0, 1.259523034095764
5, 11, 0, 3.029154062271118
5, 12, 0, 1.259171962738037
5, 13, 0, 1.946349024772644
5, 14, 0, 0.2831928133964539
5, 15, 0, 1.623965978622437
5, 16, 0, 1.253057360649109
5, 17, 0, 1.268902778625488
5, 18, 0, 1.273298501968384
5, 19, 0, 1.651627063751221
5, 20, 0, 3.630584716796875
5, 21, 0, 2.900520086288452
5, 22, 0, 1.991221308708191
5, 23, 0, 2.307510375976562
5, 24, 0, 3.261323928833008
5, 25, 0, 1.904687762260437
5, 26, 0, 1.005057096481323
5, 27, 0, 1.037340998649597
5, 28, 0, 2.6138014793396
5, 29, 0, 2.315420866012573
5, 30, 0, 1.596688151359558
5, 31, 0, 1.968553066253662
5, 32, 0, 1.342469692230225
5, 33, 0, 2.263299703598022
5, 34, 0, 1.225777626037598
5, 35, 0, 2.526397943496704
5, 36, 0, 1.905137300491333
5, 37, 0, 1.631358504295349
5, 38, 0, 0.9953481554985046
5, 39, 0, 3.24127459526062
5, 40, 0, 1.987623333930969
5, 41, 0, 0.9724985957145691
5, 42, 0, 3.045754671096802
5, 43, 0, 2.677112340927124
5, 44, 0, 2.17997670173645
5, 45, 0, 2.611111879348755
5, 46, 0, 3.559004068374634
5, 47, 0, 1.889193892478943
5, 48, 0, 1.291007041931152
5, 49, 0, 3.016051054000854
6, 0, 0, 2.58145809173584
6, 1, 0, 1.948447942733765
6, 2, 0, 3.25382661819458
6, 3, 0, 1.555170178413391
6, 4, 0, 1.004038691520691
6, 5, 0, 2.579752445220947
6, 6, 0, 2.60723614692688
6, 7, 0, 4.230268478393555
6, 8, 0, 3.983580589294434
6, 9, 0, 2.271527051925659
6, 10, 0, 2.912078380584717
6, 11, 0, 3.176390886306763
6, 12, 0, 1.866471767425537
6, 13, 0, 3.289920806884766
6, 14, 0, 1.976237535476685
6, 15, 0, 1.004141330718994
6, 16, 0, 1.968663811683655
6, 17, 0, 1.920827150344849
6, 18, 0, 3.93162989616394
6, 19, 0, 1.973046779632568
6, 20, 0, 2.864730834960938
6, 21, 0, 1.015824913978577
6, 22, 0, 1.930737733840942
6, 23, 0, 1.956594705581665
6, 24, 0, 2.026842594146729
6, 25, 0, 2.288718461990356
6, 26, 0, 2.294326543807983
6, 27, 0, 1.550206661224365
6, 28, 0, 2.355023145675659
6, 29, 0, 1.976211309432983
6, 30, 0, 2.564179658889771
6, 31, 0, 1.670074462890625
6, 32, 0, 0.9662144780158997
6, 33, 0, 3.706800699234009
6, 34, 0, 4.463050365447998
6, 35, 0, 1.008527874946594
6, 36, 0, 3.242718696594238
6, 37, 0, 1.943980932235718
6, 38, 0, 2.962369680404663
6, 39, 0, 1.739615559577942
6, 40, 0, 3.432958602905273
6, 41, 0, 0.9710728526115417
6, 42, 0, 2.978134870529175
6, 43, 0, 1.848531126976013
6, 44, 0, 2.324238777160645
6, 45, 0, 2.317300319671631
6, 46, 0, 1.646431088447571
6, 47, 0, 2.57018256187439
6, 48, 0, 1.649600744247437
6, 49, 0, 3.031477451324463
7, 0, 0, 2.270208358764648
7, 1, 0, 3.251239538192749
7, 2, 0, 2.337450742721558
7, 3, 0, 1.010294318199158
7, 4, 0, 0.3099917769432068
7, 5, 0, 3.798393249511719
7, 6, 0, 3.665528774261475
7, 7, 0, 2.935934782028198
7, 8, 0, 2.603094339370728
7, 9, 0, 3.033785820007324
7, 10, 0, 1.895099759101868
7, 11, 0, 3.002715349197388
7, 12, 0, 1.29944384098053
7, 13, 0, 0.8974273204803467
7, 14, 0, 2.906897783279419
7, 15, 0, 1.952549576759338
7, 16, 0, 1.603263974189758
7, 17, 0, 1.276285886764526
7, 18, 0, 0.9395443797111511
7, 19, 0, 2.565542221069336
7, 20, 0, 1.85243821144104
7, 21, 0, 1.262096762657166
7, 22, 0, 2.65186595916748
7, 23, 0, 2.365060091018677
7, 24, 0, 1.680914282798767
7, 25, 0, 0.969586968421936
7, 26, 0, 1.30567991733551
7, 27, 0, 2.888552904129028
7, 28, 0, 1.651078462600708
7, 29, 0, 2.267062902450562
7, 30, 0, 0.9501555562019348
7, 31, 0, 1.642734169960022
7, 32, 0, 2.659240484237671
7, 33, 0, 1.633779048919678
7, 34, 0, 1.593080878257751
7, 35, 0, 1.924217224121094
7, 36, 0, 2.582919359207153
7, 37, 0, 1.61616575717926
7, 38, 0, 3.587042808532715
7, 39, 0, 2.525642156600952
7, 40, 0, 1.601234793663025
7, 41, 0, 2.021594285964966
7, 42, 0, 2.909823894500732
7, 43, 0, 1.281741142272949
7, 44, 0, 2.60006046295166
7, 45, 0, 2.497653722763062
7, 46, 0, 1.205078840255737
7, 47, 0, 2.34246039390564
7, 48, 0, 1.903225898742676
7, 49, 0, 1.945190191268921
8, 0, 0, 1.284375429153442
8, 1, 0, 3.249321460723877
8, 2, 0, 2.656855344772339
8, 3, 0, 0.9692918658256531
8, 4, 0, 1.331509113311768
8, 5, 0, 2.235596895217896
8, 6, 0, 2.58449912071228
8, 7, 0, 3.212009906768799
8, 8, 0, 1.607718467712402
8, 9, 0, 1.67279326915741
8, 10, 0, 1.34234881401062
8, 11, 0, 0.9173318147659302
8, 12, 0, 3.276010513305664
8, 13, 0, 2.323927164077759
8, 14, 0, 3.23379111289978
8, 15, 0, 1.907379865646362
8, 16, 0, 1.022740483283997
8, 17, 0, 2.253681182861328
8, 18, 0, 3.856333017349243
8, 19, 0, 1.980662822723389
8, 20, 0, 2.240745067596436
8, 21, 0, 1.364928245544434
8, 22, 0, 2.87286639213562
8, 23, 0, 1.629932761192322
8, 24, 0, 2.007524251937866
8, 25, 0, 2.227640867233276
8, 26, 0, 1.632588624954224
8, 27, 0, 2.273170232772827
8, 28, 0, 2.285343885421753
8, 29, 0, 3.605484247207642
8, 30, 0, 2.627177953720093
8, 31, 0, 2.993502378463745
8, 32, 0, 1.308747887611389
8, 33, 0, 2.658433198928833
8, 34, 0, 0.9881436824798584
8, 35, 0, 2.392025947570801
8, 36, 0, 1.032914042472839
8, 37, 0, 2.04417896270752
8, 38, 0, 1.399925947189331
8, 39, 0, 2.933363437652588
8, 40, 0, 3.138316869735718
8, 41, 0, 2.641941785812378
8, 42, 0, 2.155858039855957
8, 43, 0, 1.92675507068634
8, 44, 0, 2.019085884094238
8, 45, 0, 2.547102212905884
8, 46, 0, 3.336441993713379
8, 47, 0, 1.609173774719238
8, 48, 0, 1.233399868011475
8, 49, 0, 2.39938759803772
9, 0, 0, 3.266864538192749
9, 1, 0, 1.317888617515564
9, 2, 0, 2.880311965942383
9, 3, 0, 1.626743316650391
9, 4, 0, 3.352524757385254
9, 5, 0, 3.470229864120483
9, 6, 0, 3.58653736114502
9, 7, 0, 1.660460591316223
9, 8, 0, 1.665874719619751
9, 9, 0, 1.644056558609009
9, 10, 0, 1.647936582565308
9, 11, 0, 0.983528196811676
9, 12, 0, 2.30457615852356
9, 13, 0, 1.934132933616638
9, 14, 0, 3.566992521286011
9, 15, 0, 1.290941596031189
9, 16, 0, 2.23935604095459
9, 17, 0, 2.975038051605225
9, 18, 0, 3.248830080032349
9, 19, 0, 3.025851726531982
9, 20, 0, 1.913833141326904
9, 21, 0, 2.926657199859619
9, 22, 0, 1.893777132034302
9, 23, 0, 1.016788959503174
9, 24, 0, 0.6435641646385193
9, 25, 0, 3.55707836151123
9, 26, 0, 2.953892469406128
9, 27, 0, 2.36447811126709
9, 28, 0, 3.506050825119019
9, 29, 0, 1.903645873069763
9, 30, 0, 1.31224513053894
9, 31, 0, 1.587765455245972
9, 32, 0, 0.9152225255966187
9, 33, 0, 0.9480979442596436
9, 34, 0, 1.59683358669281
9, 35, 0, 2.608922243118286
9, 36, 0, 0.6433883309364319
9, 37, 0, 3.621496438980103
9, 38, 0, 1.62353789806366
9, 39, 0, 0.9340893626213074
9, 40, 0, 1.934495449066162
9, 41, 0, 3.606061935424805
9, 42, 0, 1.632846474647522
9, 43, 0, 1.946913361549377
9, 44, 0, 3.995095014572144
9, 45, 0, 1.00083327293396
9, 46, 0, 2.893792629241943
9, 47, 0, 2.604437828063965
9, 48, 0, 1.604401230812073
9, 49, 0, 4.103878498077393
10, 0, 0, 2.318489074707031
10, 1, 0, 2.569973468780518
10, 2, 0, 2.97464919090271
10, 3, 0, 1.290554881095886
10, 4, 0, 2.485614538192749
10, 5, 0, 2.953494310379028
10, 6, 0, 0.9983443021774292
10, 7, 0, 2.588812112808228
10, 8, 0, 2.280139923095703
10, 9, 0, 2.552021026611328
10, 10, 0, 2.395043134689331
10, 11, 0, 2.6806800365448
10, 12, 0, 1.361866354942322
10, 13, 0, 2.301386594772339
10, 14, 0, 1.642909169197083
10, 15, 0, 2.610177278518677
10, 16, 0, 1.611445188522339
10, 17, 0, 2.411994457244873
10, 18, 0, 2.001279592514038
10, 19, 0, 3.540406703948975
10, 20, 0, 2.621294736862183
10, 21, 0, 2.230828523635864
10, 22, 0, 1.924098253250122
10, 23, 0, 2.610085487365723
10, 24, 0, 2.017809152603149
10, 25, 0, 1.654798269271851
10, 26, 0, 2.282124519348145
10, 27, 0, 1.719511270523071
10, 28, 0, 2.34583592414856
10, 29, 0, 1.888513565063477
10, 30, 0, 1.65515124797821
10, 31, 0, 3.724837303161621
10, 32, 0, 2.266636610031128
10, 33, 0, 1.620529294013977
10, 34, 0, 1.675862431526184
10, 35, 0, 2.894062519073486
10, 36, 0, 2.21766185760498
10, 37, 0, 1.030059218406677
10, 38, 0, 3.676598310470581
10, 39, 0, 1.628043055534363
10, 40, 0, 1.970940232276917
10, 41, 0, 2.664882898330688
10, 42, 0, 1.536418914794922
10, 43, 0, 1.916975140571594
10, 44, 0, 2.636992216110229
10, 45, 0, 2.613092184066772
10, 46, 0, 0.941916286945343
10, 47, 0, 1.94238817691803
10, 48, 0, 1.64516806602478
10, 49, 0, 1.600040555000305
11, 0, 0, 2.235920667648315
11, 1, 0, 2.667048454284668
11, 2, 0, 1.955953001976013
11, 3, 0, 1.568256378173828
11, 4, 0, 1.93634045124054
11, 5, 0, 1.602975726127625
11, 6, 0, 1.582809090614319
11, 7, 0, 2.639296054840088
11, 8, 0, 1.984114289283752
11, 9, 0, 3.286069869995117
11, 10, 0, 1.947228789329529
11, 11, 0, 0.671785831451416
11, 12, 0, 2.932538270950317
11, 13, 0, 2.391571283340454
11, 14, 0, 2.965001583099365
11, 15, 0, 2.579166650772095
11, 16, 0, 1.920192956924438
11, 17, 0, 3.273312091827393
11, 18, 0, 1.931413769721985
11, 19, 0, 1.5392085313797
11, 20, 0, 2.264806509017944
11, 21, 0, 2.534687519073486
11, 22, 0, 2.354480028152466
11, 23, 0, 0.6064825654029846
11, 24, 0, 3.523579597473145
11, 25, 0, 2.323935747146606
11, 26, 0, 2.61369252204895
11, 27, 0, 2.956734895706177
11, 28, 0, 1.958752632141113
11, 29, 0, 2.263579845428467
11, 30, 0, 2.582578897476196
11, 31, 0, 0.6573360562324524
11, 32, 0, 1.905573964118958
11, 33, 0, 4.037952899932861
11, 34, 0, 2.342753410339355
11, 35, 0, 1.574997782707214
11, 36, 0, 2.182578802108765
11, 37, 0, 1.679767370223999
11, 38, 0, 2.618589639663696
11, 39, 0, 2.929513692855835
11, 40, 0, 2.363878965377808
11, 41, 0, 1.622260689735413
11, 42, 0, 3.426835775375366
11, 43, 0, 2.923610925674438
11, 44, 0, 2.258331775665283
11, 45, 0, 2.265367984771729
11, 46, 0, 3.557412147521973
11, 47, 0, 1.636183023452759
11, 48, 0, 2.689365863800049
11, 49, 0, 3.187695980072021
12, 0, 0, 3.53154468536377
12, 1, 0, 0.6197572350502014
12, 2, 0, 3.024742841720581
12, 3, 0, 2.605387687683105
12, 4, 0, 1.009133815765381
12, 5, 0, 2.337940454483032
12, 6, 0, 1.965936779975891
12, 7, 0, 2.014385461807251
12, 8, 0, 0.9223124384880066
12, 9, 0, 3.60359263420105
12, 10, 0, 2.932379245758057
12, 11, 0, 2.339431762695312
12, 12, 0, 3.559499740600586
12, 13, 0, 2.284100770950317
12, 14, 0, 2.026337862014771
12, 15, 0, 3.201448202133179
12, 16, 0, 2.293367624282837
12, 17, 0, 1.595684766769409
12, 18, 0, 2.262977838516235
12, 19, 0, 2.256573677062988
12, 20, 0, 0.695966899394989
12, 21, 0, 2.282211065292358
12, 22, 0, 2.57058310508728
12, 23, 0, 1.662938952445984
12, 24, 0, 1.999929428100586
12, 25, 0, 2.203656911849976
12, 26, 0, 2.692645072937012
12, 27, 0, 0.9530665278434753
12, 28, 0, 1.577529668807983
12, 29, 0, 1.595848321914673
12, 30, 0, 3.589037418365479
12, 31, 0, 1.357536315917969
12, 32, 0, 1.634680151939392
12, 33, 0, 2.244916439056396
12, 34, 0, 4.228117942810059
12, 35, 0, 1.973990082740784
12, 36, 0, 1.624965786933899
12, 37, 0, 0.9245815873146057
12, 38, 0, 2.6003258228302
12, 39, 0, 1.371838092803955
12, 40, 0, 2.967261075973511
12, 41, 0, 1.955345153808594
12, 42, 0, 4.844442367553711
12, 43, 0, 1.185322284698486
12, 44, 0, 3.268874406814575
12, 45, 0, 1.327441096305847
12, 46, 0, 1.979937791824341
12, 47, 0, 1.637288093566895
12, 48, 0, 2.568498611450195
12, 49, 0, 2.550235033035278
13, 0, 0, 1.56419050693512
13, 1, 0, 2.287949323654175
13, 2, 0, 2.29016637802124
13, 3, 0, 1.319251656532288
13, 4, 0, 4.41425609588623
13, 5, 0, 1.309496998786926
13, 6, 0, 3.188264131546021
13, 7, 0, 2.635409593582153
13, 8, 0, 3.332069635391235
13, 9, 0, 3.89777398109436
13, 10, 0, 0.9606956243515015
13, 11, 0, 0.9791658520698547
13, 12, 0, 2.03096604347229
13, 13, 0, 1.923505663871765
13, 14, 0, 1.322749853134155
13, 15, 0, 1.847641110420227
13, 16, 0, 2.277259111404419
13, 17, 0, 1.324074029922485
13, 18, 0, 2.574633121490479
13, 19, 0, 2.627768754959106
13, 20, 0, 1.363714694976807
13, 21, 0, 0.6553220748901367
13, 22, 0, 3.230779886245728
13, 23, 0, 2.964320659637451
13, 24, 0, 1.918464422225952
13, 25, 0, 2.836938858032227
13, 26, 0, 2.268454313278198
13, 27, 0, 1.289919018745422
13, 28, 0, 2.237642288208008
13, 29, 0, 3.16066837310791
13, 30, 0, 2.583717346191406
13, 31, 0, 0.9481123685836792
13, 32, 0, 2.249275684356689
13, 33, 0, 2.364487171173096
13, 34, 0, 3.998793840408325
13, 35, 0, 2.162229299545288
13, 36, 0, 2.923882007598877
13, 37, 0, 1.280423521995544
13, 38, 0, 1.591965436935425
13, 39, 0, 1.620097517967224
13, 40, 0, 1.253660440444946
13, 41, 0, 3.183212757110596
13, 42, 0, 2.212188482284546
13, 43, 0, 1.032426714897156
13, 44, 0, 1.954913258552551
13, 45, 0, 0.6345676183700562
13, 46, 0, 2.30481219291687
13, 47, 0, 0.6762570738792419
13, 48, 0, 3.209702968597412
13, 49, 0, 1.670817375183105
14, 0, 0, 3.622991561889648
14, 1, 0, 2.250878572463989
14, 2, 0, 2.629679918289185
14, 3, 0, 3.224525690078735
14, 4, 0, 3.920464754104614
14, 5, 0, 2.967106342315674
14, 6, 0, 2.571306467056274
14, 7, 0, 2.213061094284058
14, 8, 0, 1.664227843284607
14, 9, 0, 3.201687097549438
14, 10, 0, 2.255242824554443
14, 11, 0, 3.469399452209473
14, 12, 0, 1.632145881652832
14, 13, 0, 0.9968268275260925
14, 14, 0, 1.663021445274353
14, 15, 0, 1.589510917663574
14, 16, 0, 1.314554333686829
14, 17, 0, 2.598242998123169
14, 18, 0, 2.559766054153442
14, 19, 0, 3.295393705368042
14, 20, 0, 2.009407520294189
14, 21, 0, 1.02480685710907
14, 22, 0, 2.603666543960571
14, 23, 0, 1.898051142692566
14, 24, 0, 4.212613105773926
14, 25, 0, 2.068409204483032
14, 26, 0, 2.645813465118408
14, 27, 0, 3.871463537216187
14, 28, 0, 3.251474618911743
14, 29, 0, 2.258759021759033
14, 30, 0, 3.128017425537109
14, 31, 0, 3.043201923370361
14, 32, 0, 1.892335295677185
14, 33, 0, 1.565139174461365
14, 34, 0, 1.646059989929199
14, 35, 0, 2.242333889007568
14, 36, 0, 1.307303428649902
14, 37, 0, 2.976376295089722
14, 38, 0, 1.616201758384705
14, 39, 0, 2.903220891952515
14, 40, 0, 1.669349074363708
14, 41, 0, 1.930543780326843
14, 42, 0, 1.676781058311462
14, 43, 0, 3.189746141433716
14, 44, 0, 0.9427608847618103
14, 45, 0, 1.978614568710327
14, 46, 0, 2.300183534622192
14, 47, 0, 2.473828077316284
14, 48, 0, 1.944202184677124
14, 49, 0, 3.190321207046509
15, 0, 0, 2.65465784072876
15, 1, 0, 2.918919086456299
15, 2, 0, 0.942402720451355
15, 3, 0, 3.560631275177002
15, 4, 0, 2.286446094512939
15, 5, 0, 2.609147548675537
15, 6, 0, 2.028573989868164
15, 7, 0, 0.9815064668655396
15, 8, 0, 1.889173984527588
15, 9, 0, 2.186387777328491
15, 10, 0, 0.9799085259437561
15, 11, 0, 2.590948820114136
15, 12, 0, 2.21800708770752
15, 13, 0, 2.58836555480957
15, 14, 0, 1.406611919403076
15, 15, 0, 2.267299890518188
15, 16, 0, 0.6249664425849915
15, 17, 0, 0.9286239147186279
15, 18, 0, 2.944664239883423
15, 19, 0, 1.222372174263
15, 20, 0, 2.583571910858154
15, 21, 0, 3.920832395553589
15, 22, 0, 2.907472372055054
15, 23, 0, 2.260798692703247
15, 24, 0, 2.508627891540527
15, 25, 0, 2.482722759246826
15, 26, 0, 2.972966194152832
15, 27, 0, 3.580199480056763
15, 28, 0, 2.011070013046265
15, 29, 0, 4.199945449829102
15, 30, 0, 3.039780378341675
15, 31, 0, 2.609347820281982
15, 32, 0, 2.015985727310181
15, 33, 0, 1.015908002853394
15, 34, 0, 0.6731311082839966
15, 35, 0, 2.604794979095459
15, 36, 0, 2.611598253250122
15, 37, 0, 0.6021982431411743
15, 38, 0, 3.063231468200684
15, 39, 0, 0.6171295046806335
15, 40, 0, 1.27736508846283
15, 41, 0, 1.840288043022156
15, 42, 0, 0.9805064797401428
15, 43, 0, 3.444762706756592
15, 44, 0, 2.905212163925171
15, 45, 0, 2.262970924377441
15, 46, 0, 2.280354976654053
15, 47, 0, 2.925717830657959
15, 48, 0, 2.96919322013855
15, 49, 0, 1.596300482749939
16, 0, 0, 1.339499115943909
16, 1, 0, 1.623218297958374
16, 2, 0, 1.922698140144348
16, 3, 0, 2.314900398254395
16, 4, 0, 2.672817945480347
16, 5, 0, 3.704249143600464
16, 6, 0, 1.234912633895874
16, 7, 0, 3.189296722412109
16, 8, 0, 2.008428573608398
16, 9, 0, 2.630959510803223
16, 10, 0, 1.628134846687317
16, 11, 0, 0.9689350128173828
16, 12, 0, 2.567318439483643
16, 13, 0, 1.985385060310364
16, 14, 0, 0.9492018222808838
16, 15, 0, 0
16, 16, 0, 3.34748101234436
16, 17, 0, 2.203961372375488
16, 18, 0, 2.303062677383423
16, 19, 0, 0.9667038917541504
16, 20, 0, 0.9937528967857361
16, 21, 0, 0.9973531365394592
16, 22, 0, 0.6635940074920654
16, 23, 0, 1.317875146865845
16, 24, 0, 1.538618326187134
16, 25, 0, 3.307207107543945
16, 26, 0, 0.3302592635154724
16, 27, 0, 1.8504319190979
16, 28, 0, 3.189196586608887
16, 29, 0, 3.822217226028442
16, 30, 0, 1.529543519020081
16, 31, 0, 2.259347677230835
16, 32, 0, 3.832329750061035
16, 33, 0, 2.370667457580566
16, 34, 0, 0.625022292137146
16, 35, 0, 0.3073689937591553
16, 36, 0, 1.92037558555603
16, 37, 0, 2.581547737121582
16, 38, 0, 2.682967185974121
16, 39, 0, 2.267819881439209
16, 40, 0, 0.6418118476867676
16, 41, 0, 2.321385145187378
16, 42, 0, 1.627131462097168
16, 43, 0, 2.612092256546021
16, 44, 0, 2.658797740936279
16, 45, 0, 2.968984603881836
16, 46, 0, 3.347740888595581
16, 47, 0, 0.9363595247268677
16, 48, 0, 2.813213348388672
16, 49, 0, 1.326884984970093
17, 0, 0, 2.261034488677979
17, 1, 0, 2.918683528900146
17, 2, 0, 2.765653610229492
17, 3, 0, 2.175834178924561
17, 4, 0, 2.235098361968994
17, 5, 0, 1.393479943275452
17, 6, 0, 3.046267986297607
17, 7, 0, 2.038274049758911
17, 8, 0, 2.336648225784302
17, 9, 0, 3.658276319503784
17, 10, 0, 1.002343893051147
17, 11, 0, 2.277541875839233
17, 12, 0, 2.582290410995483
17, 13, 0, 1.91899037361145
17, 14, 0, 1.326262831687927
17, 15, 0, 1.56206750869751
17, 16, 0, 1.930267810821533
17, 17, 0, 2.250443458557129
17, 18, 0, 1.932958841323853
17, 19, 0, 2.306805372238159
17, 20, 0, 0.9704268574714661
17, 21, 0, 1.540364742279053
17, 22, 0, 2.705926656723022
17, 23, 0, 3.363920211791992
17, 24, 0, 1.633249998092651
17, 25, 0, 2.559406757354736
17, 26, 0, 2.360734462738037
17, 27, 0, 3.580834865570068
17, 28, 0, 0.9345277547836304
17, 29, 0, 2.536795377731323
17, 30, 0, 2.223494529724121
17, 31, 0, 2.606734752655029
17, 32, 0, 1.656445622444153
17, 33, 0, 0.988430917263031
17, 34, 0, 3.26618480682373
17, 35, 0, 1.925510287284851
17, 36, 0, 2.800855875015259
17, 37, 0, 2.032945156097412
17, 38, 0, 1.903720736503601
17, 39, 0, 2.356624364852905
17, 40, 0, 2.941858768463135
17, 41, 0, 3.17315936088562
17, 42, 0, 1.912172436714172
17, 43, 0, 3.569323539733887
17, 44, 0, 3.627520322799683
17, 45, 0, 1.341099500656128
17, 46, 0, 3.2208411693573
17, 47, 0, 3.318055391311646
17, 48, 0, 3.24648642539978
17, 49, 0, 2.509508848190308
18, 0, 0, 2.342803001403809
18, 1, 0, 2.580823183059692
18, 2, 0, 2.236960649490356
18, 3, 0, 1.002079606056213
18, 4, 0, 2.225497484207153
18, 5, 0, 1.988412499427795
18, 6, 0, 1.267507791519165
18, 7, 0, 2.621744871139526
18, 8, 0, 2.684940338134766
18, 9, 0, 1.310354709625244
18, 10, 0, 4.325857639312744
18, 11, 0, 2.324323654174805
18, 12, 0, 2.363781452178955
18, 13, 0, 2.9981849193573
18, 14, 0, 3.279845237731934
18, 15, 0, 2.893671274185181
18, 16, 0, 3.517147541046143
18, 17, 0, 2.972511291503906
18, 18, 0, 3.222269296646118
18, 19, 0, 1.617828130722046
18, 20, 0, 3.00562596321106
18, 21, 0, 1.223973512649536
18, 22, 0, 2.928561449050903
18, 23, 0, 0.6527063250541687
18, 24, 0, 3.237242460250854
18, 25, 0, 2.68528938293457
18, 26, 0, 3.229351043701172
18, 27, 0, 1.620558857917786
18, 28, 0, 2.826455593109131
18, 29, 0, 3.633794069290161
18, 30, 0, 1.650750756263733
18, 31, 0, 1.650819659233093
18, 32, 0, 2.251700878143311
18, 33, 0, 1.86700963973999
18, 34, 0, 1.940402388572693
18, 35, 0, 0.9263820648193359
18, 36, 0, 1.939894676208496
18, 37, 0, 1.273619651794434
18, 38, 0, 2.302097320556641
18, 39, 0, 1.674880981445312
18, 40, 0, 3.718337535858154
18, 41, 0, 1.608271837234497
18, 42, 0, 0.6461341381072998
18, 43, 0, 2.239689350128174
18, 44, 0, 1.291143774986267
18, 45, 0, 1.277550578117371
18, 46, 0, 0.9760563373565674
18, 47, 0, 4.27940559387207
18, 48, 0, 2.007280111312866
18, 49, 0, 3.139027833938599
19, 0, 0, 2.599649429321289
19, 1, 0, 3.61408543586731
19, 2, 0, 2.604682445526123
19, 3, 0, 0.5941925048828125
19, 4, 0, 3.583685636520386
19, 5, 0, 1.575035572052002
19, 6, 0, 1.315991401672363
19, 7, 0, 1.631330251693726
19, 8, 0, 2.403031826019287
19, 9, 0, 2.046586990356445
19, 10, 0, 2.857186079025269
19, 11, 0, 2.265428304672241
19, 12, 0, 2.327044248580933
19, 13, 0, 3.244919538497925
19, 14, 0, 2.247044801712036
19, 15, 0, 0.6278097033500671
19, 16, 0, 0.6940599679946899
19, 17, 0, 2.302474737167358
19, 18, 0, 1.34001350402832
19, 19, 0, 1.949018836021423
19, 20, 0, 2.277671813964844
19, 21, 0, 1.331161260604858
19, 22, 0, 2.27857780456543
19, 23, 0, 0.9352033138275146
19, 24, 0, 1.638653874397278
19, 25, 0, 1.302407383918762
19, 26, 0, 0.6572945713996887
19, 27, 0, 2.587346315383911
19, 28, 0, 3.656282663345337
19, 29, 0, 1.637935996055603
19, 30, 0, 2.332989692687988
19, 31, 0, 2.010749101638794
19, 32, 0, 2.932945489883423
19, 33, 0, 1.582542538642883
19, 34, 0, 2.610653400421143
19, 35, 0, 2.317477703094482
19, 36, 0, 2.26610279083252
19, 37, 0, 3.91693902015686
19, 38, 0, 3.227527141571045
19, 39, 0, 1.973602175712585
19, 40, 0, 2.666651487350464
19, 41, 0, 2.543066024780273
19, 42, 0, 2.31400465965271
19, 43, 0, 1.568478941917419
19, 44, 0, 1.962392807006836
19, 45, 0, 2.916354894638062
19, 46, 0, 1.652863383293152
19, 47, 0, 0.6371955275535583
19, 48, 0, 1.675126910209656
19, 49, 0, 0.9429255127906799
20, 0, 0, 0.6341971158981323
20, 1, 0, 3.206053495407104
20, 2, 0, 1.979658722877502
20, 3, 0, 2.017315149307251
20, 4, 0, 3.632605314254761
20, 5, 0, 1.914165258407593
20, 6, 0, 3.558376312255859
20, 7, 0, 1.966705679893494
20, 8, 0, 0.6209911108016968
20, 9, 0, 2.887884855270386
20, 10, 0, 3.677581071853638
20, 11, 0, 1.276509284973145
20, 12, 0, 2.306181192398071
20, 13, 0, 2.231726408004761
20, 14, 0, 1.240710377693176
20, 15, 0, 2.325626611709595
20, 16, 0, 1.673342704772949
20, 17, 0, 2.670002222061157
20, 18, 0, 2.403033494949341
20, 19, 0, 1.954565405845642
20, 20, 0, 0.2976669669151306
20, 21, 0, 2.201172113418579
20, 22, 0, 2.282891988754272
20, 23, 0, 0.6686860918998718
20, 24, 0, 3.082934379577637
20, 25, 0, 0.6455431580543518
20, 26, 0, 2.294368982315063
20, 27, 0, 3.261791229248047
20, 28, 0, 2.006960868835449
20, 29, 0, 3.647662162780762
20, 30, 0, 2.248412370681763
20, 31, 0, 1.621250867843628
20, 32, 0, 2.337776184082031
20, 33, 0, 2.307798624038696
20, 34, 0, 0.9124541878700256
20, 35, 0, 2.901133298873901
20, 36, 0, 1.006542563438416
20, 37, 0, 2.375080585479736
20, 38, 0, 2.853645801544189
20, 39, 0, 1.662925958633423
20, 40, 0, 1.972882509231567
20, 41, 0, 2.187947034835815
20, 42, 0, 2.7043616771698
20, 43, 0, 1.677658081054688
20, 44, 0, 2.936429977416992
20, 45, 0, 2.669520854949951
20, 46, 0, 2.608461141586304
20, 47, 0, 2.691277980804443
20, 48, 0, 2.520532369613647
20, 49, 0, 1.991802215576172
21, 0, 0, 4.345443248748779
21, 1, 0, 3.915486097335815
21, 2, 0, 2.278189420700073
