# TOPAS Version: 3.7
# Parameter File: main
# Results for scorer dose
# Scored in component: Patch
# X in 50 bins of 0.0002 cm
# Y in 50 bins of 0.0002 cm
# Z in 1 bin  of 0.003 cm
# DoseToMedium ( Gy ) : Sum   
0, 0, 0, 0
0, 1, 0, 0.6056530475616455
0, 2, 0, 0.3296958804130554
0, 3, 0, 0
0, 4, 0, 0
0, 5, 0, 0
0, 6, 0, 0.3390259742736816
0, 7, 0, 0.3217133581638336
0, 8, 0, 0.3628210425376892
0, 9, 0, 0
0, 10, 0, 0
0, 11, 0, 0.641002357006073
0, 12, 0, 0
0, 13, 0, 0
0, 14, 0, 0
0, 15, 0, 0.3251778483390808
0, 16, 0, 0.3312933444976807
0, 17, 0, 0.2915301918983459
0, 18, 0, 0.3001075983047485
0, 19, 0, 0
0, 20, 0, 0
0, 21, 0, 0
0, 22, 0, 0
0, 23, 0, 0.3011224269866943
0, 24, 0, 0
0, 25, 0, 0
0, 26, 0, 0
0, 27, 0, 0.288794606924057
0, 28, 0, 0
0, 29, 0, 0.3083579838275909
0, 30, 0, 0
0, 31, 0, 0
0, 32, 0, 0
0, 33, 0, 0.3162727355957031
0, 34, 0, 0
0, 35, 0, 0
0, 36, 0, 0
0, 37, 0, 0
0, 38, 0, 0
0, 39, 0, 0.3294971585273743
0, 40, 0, 0
0, 41, 0, 0
0, 42, 0, 0
0, 43, 0, 0
0, 44, 0, 0
0, 45, 0, 0
0, 46, 0, 0.3371945321559906
0, 47, 0, 0
0, 48, 0, 0.3418868184089661
0, 49, 0, 0.6538779139518738
1, 0, 0, 0.3529213070869446
1, 1, 0, 0
1, 2, 0, 0
1, 3, 0, 0
1, 4, 0, 0
1, 5, 0, 0.3022607564926147
1, 6, 0, 0
1, 7, 0, 0.3254891037940979
1, 8, 0, 0.6780011057853699
1, 9, 0, 0
1, 10, 0, 0.3608007431030273
1, 11, 0, 0.2974633574485779
1, 12, 0, 0
1, 13, 0, 0.3804910182952881
1, 14, 0, 0.3334957361221313
1, 15, 0, 0
1, 16, 0, 0.2995244264602661
1, 17, 0, 0.3069641292095184
1, 18, 0, 0
1, 19, 0, 0.3315283954143524
1, 20, 0, 0
1, 21, 0, 0
1, 22, 0, 0.3434187769889832
1, 23, 0, 0
1, 24, 0, 0
1, 25, 0, 0.3503189980983734
1, 26, 0, 0.3460483849048615
1, 27, 0, 0
1, 28, 0, 0
1, 29, 0, 0
1, 30, 0, 0
1, 31, 0, 0.2919870913028717
1, 32, 0, 0
1, 33, 0, 0
1, 34, 0, 0.3285999894142151
1, 35, 0, 0.3010169863700867
1, 36, 0, 0
1, 37, 0, 0
1, 38, 0, 0
1, 39, 0, 0
1, 40, 0, 0
1, 41, 0, 0
1, 42, 0, 0.3080184459686279
1, 43, 0, 0
1, 44, 0, 0
1, 45, 0, 0
1, 46, 0, 0
1, 47, 0, 0
1, 48, 0, 0
1, 49, 0, 0
2, 0, 0, 0
2, 1, 0, 0.2982130646705627
2, 2, 0, 0.324817031621933
2, 3, 0, 0.3569577634334564
2, 4, 0, 0
2, 5, 0, 0.3231246471405029
2, 6, 0, 0
2, 7, 0, 0
2, 8, 0, 0
2, 9, 0, 0
2, 10, 0, 0.3065356016159058
2, 11, 0, 0
2, 12, 0, 0.323416531085968
2, 13, 0, 0
2, 14, 0, 0
2, 15, 0, 0.5956655144691467
2, 16, 0, 0
2, 17, 0, 0
2, 18, 0, 0
2, 19, 0, 0
2, 20, 0, 0.637745201587677
2, 21, 0, 0
2, 22, 0, 0
2, 23, 0, 0
2, 24, 0, 0
2, 25, 0, 0
2, 26, 0, 0.3734274804592133
2, 27, 0, 0
2, 28, 0, 0
2, 29, 0, 0
2, 30, 0, 0
2, 31, 0, 0
2, 32, 0, 0
2, 33, 0, 0
2, 34, 0, 0
2, 35, 0, 0
2, 36, 0, 0
2, 37, 0, 0
2, 38, 0, 0.6568772792816162
2, 39, 0, 0.3079251348972321
2, 40, 0, 0.6364155411720276
2, 41, 0, 0.3048810362815857
2, 42, 0, 0
2, 43, 0, 0.6964595317840576
2, 44, 0, 0
2, 45, 0, 0
2, 46, 0, 0
2, 47, 0, 0
2, 48, 0, 0
2, 49, 0, 0.3416601717472076
3, 0, 0, 0.3034713268280029
3, 1, 0, 0
3, 2, 0, 0
3, 3, 0, 0.3262189924716949
3, 4, 0, 0.3443039059638977
3, 5, 0, 0
3, 6, 0, 0
3, 7, 0, 0
3, 8, 0, 0
3, 9, 0, 0
3, 10, 0, 0.6597451567649841
3, 11, 0, 0
3, 12, 0, 0
3, 13, 0, 0.3348686993122101
3, 14, 0, 0
3, 15, 0, 0
3, 16, 0, 0.3397537171840668
3, 17, 0, 0.3189412355422974
3, 18, 0, 0
3, 19, 0, 0
3, 20, 0, 0.3468621373176575
3, 21, 0, 0
3, 22, 0, 0
3, 23, 0, 0
3, 24, 0, 0
3, 25, 0, 0
3, 26, 0, 0.3019473552703857
3, 27, 0, 0.3257966935634613
3, 28, 0, 0.6464186906814575
3, 29, 0, 0
3, 30, 0, 0.3150167763233185
3, 31, 0, 0
3, 32, 0, 0.2843709290027618
3, 33, 0, 0.3292216062545776
3, 34, 0, 0.3405437469482422
3, 35, 0, 0.3314379155635834
3, 36, 0, 0
3, 37, 0, 0
3, 38, 0, 0
3, 39, 0, 0
3, 40, 0, 0
3, 41, 0, 0
3, 42, 0, 0
3, 43, 0, 0
3, 44, 0, 0
3, 45, 0, 0
3, 46, 0, 0.3247553408145905
3, 47, 0, 0
3, 48, 0, 0
3, 49, 0, 0
4, 0, 0, 0.2860302031040192
4, 1, 0, 0.324417769908905
4, 2, 0, 0
4, 3, 0, 0.3003885746002197
4, 4, 0, 0.3589998483657837
4, 5, 0, 0.6386576890945435
4, 6, 0, 0.304477721452713
4, 7, 0, 0.3345460295677185
4, 8, 0, 0
4, 9, 0, 0
4, 10, 0, 0
4, 11, 0, 0
4, 12, 0, 0
4, 13, 0, 0.6166136860847473
4, 14, 0, 0
4, 15, 0, 0.6149386167526245
4, 16, 0, 0
4, 17, 0, 0
4, 18, 0, 0
4, 19, 0, 0
4, 20, 0, 0
4, 21, 0, 0.668476402759552
4, 22, 0, 0.3414667248725891
4, 23, 0, 0.3338863849639893
4, 24, 0, 0.6398783326148987
4, 25, 0, 0
4, 26, 0, 0
4, 27, 0, 0
4, 28, 0, 0
4, 29, 0, 0
4, 30, 0, 0
4, 31, 0, 0
4, 32, 0, 0.3338786065578461
4, 33, 0, 0
4, 34, 0, 0.3296373188495636
4, 35, 0, 0
4, 36, 0, 0.3131741881370544
4, 37, 0, 0.3345317840576172
4, 38, 0, 0
4, 39, 0, 0
4, 40, 0, 0
4, 41, 0, 0
4, 42, 0, 0
4, 43, 0, 0
4, 44, 0, 0.6555353403091431
4, 45, 0, 0
4, 46, 0, 0
4, 47, 0, 0
4, 48, 0, 0
4, 49, 0, 0.3396605253219604
5, 0, 0, 0.3302256464958191
5, 1, 0, 0
5, 2, 0, 0.3201095163822174
5, 3, 0, 0.3338404297828674
5, 4, 0, 0
5, 5, 0, 0
5, 6, 0, 0
5, 7, 0, 0
5, 8, 0, 0
5, 9, 0, 0
5, 10, 0, 0
5, 11, 0, 0.6598742604255676
5, 12, 0, 0
5, 13, 0, 0.3357820510864258
5, 14, 0, 0
5, 15, 0, 0.323905885219574
5, 16, 0, 0
5, 17, 0, 0
5, 18, 0, 0
5, 19, 0, 0
5, 20, 0, 0.671073317527771
5, 21, 0, 0.3309780657291412
5, 22, 0, 0
5, 23, 0, 0.3343238830566406
5, 24, 0, 0
5, 25, 0, 0
5, 26, 0, 0.3259981870651245
5, 27, 0, 0
5, 28, 0, 0
5, 29, 0, 0
5, 30, 0, 0
5, 31, 0, 0
5, 32, 0, 0
5, 33, 0, 0
5, 34, 0, 0.32481449842453
5, 35, 0, 0.3360791206359863
5, 36, 0, 0.6363095045089722
5, 37, 0, 0
5, 38, 0, 0
5, 39, 0, 0.3087762594223022
5, 40, 0, 0.3205371797084808
5, 41, 0, 0
5, 42, 0, 0
5, 43, 0, 0
5, 44, 0, 0.2990439236164093
5, 45, 0, 1.30963408946991
5, 46, 0, 0
5, 47, 0, 0.3378278315067291
5, 48, 0, 0.3461730182170868
5, 49, 0, 0
6, 0, 0, 0.3150347471237183
6, 1, 0, 0.3153524696826935
6, 2, 0, 0
6, 3, 0, 0.3350127935409546
6, 4, 0, 0
6, 5, 0, 0
6, 6, 0, 0.3417371809482574
6, 7, 0, 0
6, 8, 0, 0.3514290750026703
6, 9, 0, 0
6, 10, 0, 0
6, 11, 0, 0
6, 12, 0, 0
6, 13, 0, 0
6, 14, 0, 0.326587051153183
6, 15, 0, 0
6, 16, 0, 0
6, 17, 0, 0.3040294945240021
6, 18, 0, 0
6, 19, 0, 0
6, 20, 0, 0.3099105954170227
6, 21, 0, 0
6, 22, 0, 0
6, 23, 0, 0
6, 24, 0, 0.3260310888290405
6, 25, 0, 0.3248494267463684
6, 26, 0, 0
6, 27, 0, 0
6, 28, 0, 0
6, 29, 0, 0
6, 30, 0, 0
6, 31, 0, 0
6, 32, 0, 0
6, 33, 0, 0.3482279479503632
6, 34, 0, 0.3149356544017792
6, 35, 0, 0
6, 36, 0, 0
6, 37, 0, 0
6, 38, 0, 0.3310437202453613
6, 39, 0, 0.3653824627399445
6, 40, 0, 0
6, 41, 0, 0
6, 42, 0, 0
6, 43, 0, 0.6045649647712708
6, 44, 0, 0.3281501233577728
6, 45, 0, 0
6, 46, 0, 0
6, 47, 0, 0.3208302855491638
6, 48, 0, 0.3391909301280975
6, 49, 0, 0
7, 0, 0, 0.2988385558128357
7, 1, 0, 0.3387020230293274
7, 2, 0, 0
7, 3, 0, 0
7, 4, 0, 0
7, 5, 0, 0.6504812240600586
7, 6, 0, 0
7, 7, 0, 0.3259844779968262
7, 8, 0, 0
7, 9, 0, 0.3417319655418396
7, 10, 0, 0.2947678864002228
7, 11, 0, 0
7, 12, 0, 0
7, 13, 0, 0.2937553822994232
7, 14, 0, 0
7, 15, 0, 0
7, 16, 0, 0.3280256688594818
7, 17, 0, 0
7, 18, 0, 0
7, 19, 0, 0.6415929198265076
7, 20, 0, 0
7, 21, 0, 0
7, 22, 0, 0
7, 23, 0, 0
7, 24, 0, 0
7, 25, 0, 0.3098809123039246
7, 26, 0, 0
7, 27, 0, 0
7, 28, 0, 0
7, 29, 0, 0
7, 30, 0, 0
7, 31, 0, 0
7, 32, 0, 0
7, 33, 0, 0
7, 34, 0, 0
7, 35, 0, 0.302306741476059
7, 36, 0, 0
7, 37, 0, 0
7, 38, 0, 0
7, 39, 0, 0.3084250390529633
7, 40, 0, 0
7, 41, 0, 0
7, 42, 0, 0.649699866771698
7, 43, 0, 0
7, 44, 0, 0.341263085603714
7, 45, 0, 0
7, 46, 0, 0
7, 47, 0, 0.3450239598751068
7, 48, 0, 0.3101918995380402
7, 49, 0, 0
8, 0, 0, 0.323127806186676
8, 1, 0, 0
8, 2, 0, 0
8, 3, 0, 0
8, 4, 0, 0
8, 5, 0, 0
8, 6, 0, 0
8, 7, 0, 0
8, 8, 0, 0
8, 9, 0, 0
8, 10, 0, 0
8, 11, 0, 0.2893853783607483
8, 12, 0, 0.3128629326820374
8, 13, 0, 0
8, 14, 0, 1.000011444091797
8, 15, 0, 0
8, 16, 0, 0
8, 17, 0, 0
8, 18, 0, 0.6457242965698242
8, 19, 0, 0
8, 20, 0, 0
8, 21, 0, 0
8, 22, 0, 0
8, 23, 0, 0.3216636776924133
8, 24, 0, 0
8, 25, 0, 0
8, 26, 0, 0
8, 27, 0, 0
8, 28, 0, 0
8, 29, 0, 0
8, 30, 0, 0
8, 31, 0, 0.2969640791416168
8, 32, 0, 0
8, 33, 0, 0
8, 34, 0, 0
8, 35, 0, 0
8, 36, 0, 0
8, 37, 0, 0.3663693368434906
8, 38, 0, 0
8, 39, 0, 0.3181884586811066
8, 40, 0, 0
8, 41, 0, 0.3339122235774994
8, 42, 0, 0
8, 43, 0, 0
8, 44, 0, 0.3369456827640533
8, 45, 0, 0.3237045705318451
8, 46, 0, 0
8, 47, 0, 0
8, 48, 0, 0.3014311790466309
8, 49, 0, 0
9, 0, 0, 0
9, 1, 0, 0
9, 2, 0, 0
9, 3, 0, 0.3366661071777344
9, 4, 0, 0
9, 5, 0, 0.2992539703845978
9, 6, 0, 0
9, 7, 0, 0
9, 8, 0, 0
9, 9, 0, 0
9, 10, 0, 0
9, 11, 0, 0
9, 12, 0, 0
9, 13, 0, 0
9, 14, 0, 0.3056252896785736
9, 15, 0, 0.6449561715126038
9, 16, 0, 0
9, 17, 0, 0
9, 18, 0, 0.3243463933467865
9, 19, 0, 0
9, 20, 0, 0
9, 21, 0, 0
9, 22, 0, 0
9, 23, 0, 0
9, 24, 0, 0
9, 25, 0, 0
9, 26, 0, 0
9, 27, 0, 0
9, 28, 0, 0
9, 29, 0, 0
9, 30, 0, 0
9, 31, 0, 0
9, 32, 0, 0
9, 33, 0, 0
9, 34, 0, 0.2821821570396423
9, 35, 0, 0
9, 36, 0, 0
9, 37, 0, 0.3437850475311279
9, 38, 0, 0.3274992704391479
9, 39, 0, 0
9, 40, 0, 0.5929283499717712
9, 41, 0, 0.6579805016517639
9, 42, 0, 0
9, 43, 0, 0.6426357626914978
9, 44, 0, 0
9, 45, 0, 0
9, 46, 0, 0
9, 47, 0, 0
9, 48, 0, 0.3151275217533112
9, 49, 0, 0
10, 0, 0, 0
10, 1, 0, 0
10, 2, 0, 0
10, 3, 0, 0
10, 4, 0, 0
10, 5, 0, 0
10, 6, 0, 0
10, 7, 0, 0
10, 8, 0, 0
10, 9, 0, 0
10, 10, 0, 0
10, 11, 0, 0
10, 12, 0, 0
10, 13, 0, 0
10, 14, 0, 0.3549866378307343
10, 15, 0, 0
10, 16, 0, 0.2950053513050079
10, 17, 0, 0.3709927201271057
10, 18, 0, 0
10, 19, 0, 0
10, 20, 0, 0
10, 21, 0, 0.3175505399703979
10, 22, 0, 0
10, 23, 0, 0
10, 24, 0, 0
10, 25, 0, 0
10, 26, 0, 0
10, 27, 0, 0
10, 28, 0, 0
10, 29, 0, 0.2873562276363373
10, 30, 0, 0
10, 31, 0, 0
10, 32, 0, 0
10, 33, 0, 0
10, 34, 0, 0.3134944438934326
10, 35, 0, 0
10, 36, 0, 0
10, 37, 0, 0
10, 38, 0, 0.6638237833976746
10, 39, 0, 0.3098930716514587
10, 40, 0, 0.3599003255367279
10, 41, 0, 0.360963761806488
10, 42, 0, 0
10, 43, 0, 0
10, 44, 0, 0.3168903589248657
10, 45, 0, 0
10, 46, 0, 0
10, 47, 0, 0
10, 48, 0, 0
10, 49, 0, 0.3437926471233368
11, 0, 0, 0.6142382025718689
11, 1, 0, 0
11, 2, 0, 0
11, 3, 0, 0
11, 4, 0, 0
11, 5, 0, 0
11, 6, 0, 0
11, 7, 0, 0.3390617966651917
11, 8, 0, 0
11, 9, 0, 0.3029724061489105
11, 10, 0, 0
11, 11, 0, 0
11, 12, 0, 0
11, 13, 0, 0
11, 14, 0, 0
11, 15, 0, 0
11, 16, 0, 0
11, 17, 0, 0
11, 18, 0, 0
11, 19, 0, 0
11, 20, 0, 0
11, 21, 0, 0
11, 22, 0, 0
11, 23, 0, 0
11, 24, 0, 0.3680544197559357
11, 25, 0, 0.3301313519477844
11, 26, 0, 0
11, 27, 0, 0
11, 28, 0, 0.3098017275333405
11, 29, 0, 0
11, 30, 0, 0.3115164935588837
11, 31, 0, 0
11, 32, 0, 0.3296439349651337
11, 33, 0, 0.3482328653335571
11, 34, 0, 0.3635069131851196
11, 35, 0, 0.3130292594432831
11, 36, 0, 0
11, 37, 0, 0
11, 38, 0, 0.3187023997306824
11, 39, 0, 0.317286491394043
11, 40, 0, 0.3552136719226837
11, 41, 0, 0
11, 42, 0, 0.3414283096790314
11, 43, 0, 0.3117798566818237
11, 44, 0, 0.326539009809494
11, 45, 0, 0.302090972661972
11, 46, 0, 0.9158931374549866
11, 47, 0, 0
11, 48, 0, 0
11, 49, 0, 0
12, 0, 0, 0.302988201379776
12, 1, 0, 0
12, 2, 0, 0
12, 3, 0, 0
12, 4, 0, 0
12, 5, 0, 0.3577215671539307
12, 6, 0, 0
12, 7, 0, 0.3139221966266632
12, 8, 0, 0
12, 9, 0, 0
12, 10, 0, 0
12, 11, 0, 0.6793796420097351
12, 12, 0, 0.3308884799480438
12, 13, 0, 0
12, 14, 0, 0.6690852046012878
12, 15, 0, 0
12, 16, 0, 0.3377524614334106
12, 17, 0, 0
12, 18, 0, 0
12, 19, 0, 0
12, 20, 0, 0
12, 21, 0, 0
12, 22, 0, 0
12, 23, 0, 0.3443045616149902
12, 24, 0, 0.3516877293586731
12, 25, 0, 0
12, 26, 0, 0
12, 27, 0, 0
12, 28, 0, 0
12, 29, 0, 0
12, 30, 0, 0
12, 31, 0, 0
12, 32, 0, 0
12, 33, 0, 0
12, 34, 0, 0.3333000540733337
12, 35, 0, 0
12, 36, 0, 0.305036723613739
12, 37, 0, 0
12, 38, 0, 0
12, 39, 0, 0
12, 40, 0, 0.3172466456890106
12, 41, 0, 0.3397200405597687
12, 42, 0, 0.6787415742874146
12, 43, 0, 0.2952320575714111
12, 44, 0, 0
12, 45, 0, 0
12, 46, 0, 0
12, 47, 0, 0
12, 48, 0, 0.3166236281394958
12, 49, 0, 0
13, 0, 0, 0
13, 1, 0, 0
13, 2, 0, 0
13, 3, 0, 0
13, 4, 0, 0
13, 5, 0, 0
13, 6, 0, 0.3227937519550323
13, 7, 0, 0
13, 8, 0, 0
13, 9, 0, 0
13, 10, 0, 0
13, 11, 0, 0
13, 12, 0, 0.303811639547348
13, 13, 0, 0.3022274672985077
13, 14, 0, 0.3359860181808472
13, 15, 0, 0
13, 16, 0, 0
13, 17, 0, 0
13, 18, 0, 0
13, 19, 0, 0.9298112988471985
13, 20, 0, 0
13, 21, 0, 0
13, 22, 0, 0.3038158714771271
13, 23, 0, 0
13, 24, 0, 0
13, 25, 0, 0
13, 26, 0, 0.3342168927192688
13, 27, 0, 0
13, 28, 0, 0
13, 29, 0, 0.3350006937980652
13, 30, 0, 0
13, 31, 0, 0
13, 32, 0, 0.332214891910553
13, 33, 0, 0
13, 34, 0, 0
13, 35, 0, 0.2874275743961334
13, 36, 0, 0
13, 37, 0, 0
13, 38, 0, 0
13, 39, 0, 0
13, 40, 0, 0
13, 41, 0, 0.3039898276329041
13, 42, 0, 0.3076805472373962
13, 43, 0, 0
13, 44, 0, 0
13, 45, 0, 0
13, 46, 0, 0.3129232227802277
13, 47, 0, 0
13, 48, 0, 0
13, 49, 0, 0
14, 0, 0, 0
14, 1, 0, 0
14, 2, 0, 0
14, 3, 0, 0.3303154706954956
14, 4, 0, 0.6795153617858887
14, 5, 0, 0
14, 6, 0, 0.329860121011734
14, 7, 0, 0
14, 8, 0, 0
14, 9, 0, 0.3037984371185303
14, 10, 0, 0
14, 11, 0, 0.3131324350833893
14, 12, 0, 0
14, 13, 0, 0
14, 14, 0, 0
14, 15, 0, 0
14, 16, 0, 0
14, 17, 0, 0.3259445130825043
14, 18, 0, 0
14, 19, 0, 0
14, 20, 0, 0
14, 21, 0, 0
14, 22, 0, 0.2750819623470306
14, 23, 0, 0
14, 24, 0, 0.9212996959686279
14, 25, 0, 0
14, 26, 0, 0.3005159199237823
14, 27, 0, 0.3309206664562225
14, 28, 0, 0
14, 29, 0, 0.326534628868103
14, 30, 0, 0
14, 31, 0, 0
14, 32, 0, 0
14, 33, 0, 0.3010964393615723
14, 34, 0, 0
14, 35, 0, 0.3303798735141754
14, 36, 0, 0.6573437452316284
14, 37, 0, 0
14, 38, 0, 0
14, 39, 0, 0
14, 40, 0, 0
14, 41, 0, 0.3267759382724762
14, 42, 0, 0
14, 43, 0, 0.6096994280815125
14, 44, 0, 0
14, 45, 0, 0
14, 46, 0, 0.3250005543231964
14, 47, 0, 0
14, 48, 0, 0
14, 49, 0, 0.2942184805870056
15, 0, 0, 0
15, 1, 0, 0
15, 2, 0, 0
15, 3, 0, 0.3156344890594482
15, 4, 0, 0.6624571681022644
15, 5, 0, 0.3449457585811615
15, 6, 0, 0
15, 7, 0, 0
15, 8, 0, 0.6101311445236206
15, 9, 0, 0.3490987420082092
15, 10, 0, 0
15, 11, 0, 0
15, 12, 0, 0
15, 13, 0, 0.3112135827541351
15, 14, 0, 0
15, 15, 0, 0
15, 16, 0, 0
15, 17, 0, 0.3232075273990631
15, 18, 0, 0.3081770539283752
15, 19, 0, 0
15, 20, 0, 0.3504682183265686
15, 21, 0, 0.6176791191101074
15, 22, 0, 0
15, 23, 0, 0
15, 24, 0, 0.6451671719551086
15, 25, 0, 0
15, 26, 0, 0
15, 27, 0, 0.6180807948112488
15, 28, 0, 0
15, 29, 0, 0
15, 30, 0, 0
15, 31, 0, 0.3464270532131195
15, 32, 0, 0.3289449512958527
15, 33, 0, 0
15, 34, 0, 0
15, 35, 0, 0
15, 36, 0, 0
15, 37, 0, 0
15, 38, 0, 0.3516440987586975
15, 39, 0, 0
15, 40, 0, 0
15, 41, 0, 0.2839908003807068
15, 42, 0, 0
15, 43, 0, 0.3315385580062866
15, 44, 0, 0.3135709762573242
15, 45, 0, 0
15, 46, 0, 0
15, 47, 0, 0.3736428022384644
15, 48, 0, 0
15, 49, 0, 0.3153014481067657
16, 0, 0, 0
16, 1, 0, 0.3560208976268768
16, 2, 0, 0
16, 3, 0, 0
16, 4, 0, 0.3155897259712219
16, 5, 0, 0.6698900461196899
16, 6, 0, 0
16, 7, 0, 0.3383257985115051
16, 8, 0, 0
16, 9, 0, 0.3120637834072113
16, 10, 0, 0.3203400075435638
16, 11, 0, 0
16, 12, 0, 0
16, 13, 0, 0.3247469365596771
16, 14, 0, 0
16, 15, 0, 0
16, 16, 0, 0
16, 17, 0, 0
16, 18, 0, 0
16, 19, 0, 0
16, 20, 0, 0
16, 21, 0, 0
16, 22, 0, 0
16, 23, 0, 0
16, 24, 0, 0
16, 25, 0, 0.338716983795166
16, 26, 0, 0
16, 27, 0, 0.2869293987751007
16, 28, 0, 0.3210628032684326
16, 29, 0, 0.6636912226676941
16, 30, 0, 0
16, 31, 0, 0.3074784874916077
16, 32, 0, 0
16, 33, 0, 0.3601495921611786
16, 34, 0, 0
16, 35, 0, 0
16, 36, 0, 0
16, 37, 0, 0
16, 38, 0, 0
16, 39, 0, 0
16, 40, 0, 0
16, 41, 0, 0.3236799836158752
16, 42, 0, 0
16, 43, 0, 0
16, 44, 0, 0
16, 45, 0, 0.7045167088508606
16, 46, 0, 0.6433272957801819
16, 47, 0, 0
16, 48, 0, 0
16, 49, 0, 0
17, 0, 0, 0
17, 1, 0, 0.6685526967048645
17, 2, 0, 0
17, 3, 0, 0.3188020288944244
17, 4, 0, 0
17, 5, 0, 0.3390093743801117
17, 6, 0, 0.350338488817215
17, 7, 0, 0.680798351764679
17, 8, 0, 0.2980744242668152
17, 9, 0, 0
17, 10, 0, 0
17, 11, 0, 0
17, 12, 0, 0
17, 13, 0, 0.3393566012382507
17, 14, 0, 0.6407635807991028
17, 15, 0, 0
17, 16, 0, 0
17, 17, 0, 0.3210825026035309
17, 18, 0, 0
17, 19, 0, 0
17, 20, 0, 0
17, 21, 0, 0
17, 22, 0, 0
17, 23, 0, 0
17, 24, 0, 0
17, 25, 0, 0
17, 26, 0, 0.3595296442508698
17, 27, 0, 0
17, 28, 0, 0
17, 29, 0, 0.3152377903461456
17, 30, 0, 0.317897230386734
17, 31, 0, 0
17, 32, 0, 0
17, 33, 0, 0
17, 34, 0, 0
17, 35, 0, 0
17, 36, 0, 0
17, 37, 0, 0.6791815757751465
17, 38, 0, 0.6537610292434692
17, 39, 0, 0
17, 40, 0, 0
17, 41, 0, 0.3360313773155212
17, 42, 0, 0
17, 43, 0, 0.3133209347724915
17, 44, 0, 0.3656406104564667
17, 45, 0, 0
17, 46, 0, 0
17, 47, 0, 0.3631204962730408
17, 48, 0, 0
17, 49, 0, 0.319437563419342
18, 0, 0, 0
18, 1, 0, 0
18, 2, 0, 0
18, 3, 0, 0
18, 4, 0, 0.3330775201320648
18, 5, 0, 0.3774165213108063
18, 6, 0, 0
18, 7, 0, 0
18, 8, 0, 0
18, 9, 0, 0
18, 10, 0, 0
18, 11, 0, 0
18, 12, 0, 0
18, 13, 0, 0
18, 14, 0, 0.3102918863296509
18, 15, 0, 0
18, 16, 0, 0.6765795946121216
18, 17, 0, 0
18, 18, 0, 0
18, 19, 0, 0
18, 20, 0, 0
18, 21, 0, 0
18, 22, 0, 0.3049707114696503
18, 23, 0, 0
18, 24, 0, 0
18, 25, 0, 0
18, 26, 0, 0
18, 27, 0, 0
18, 28, 0, 0.647568941116333
18, 29, 0, 0.3223979771137238
18, 30, 0, 0.3111326396465302
18, 31, 0, 0
18, 32, 0, 0
18, 33, 0, 0.2765890061855316
18, 34, 0, 0.3504669964313507
18, 35, 0, 0
18, 36, 0, 0
18, 37, 0, 0
18, 38, 0, 0
18, 39, 0, 0.3339788913726807
18, 40, 0, 0.3116009831428528
18, 41, 0, 0.3174708783626556
18, 42, 0, 0
18, 43, 0, 0
18, 44, 0, 0.3188861012458801
18, 45, 0, 0
18, 46, 0, 0
18, 47, 0, 0.3373509049415588
18, 48, 0, 0
18, 49, 0, 0.3159990608692169
19, 0, 0, 0
19, 1, 0, 0
19, 2, 0, 0
19, 3, 0, 0
19, 4, 0, 0
19, 5, 0, 0
19, 6, 0, 0
19, 7, 0, 0.3307232260704041
19, 8, 0, 0.3265867233276367
19, 9, 0, 0
19, 10, 0, 0
19, 11, 0, 0.6301013231277466
19, 12, 0, 0.3160095512866974
19, 13, 0, 0.6801720857620239
19, 14, 0, 0.6775884032249451
19, 15, 0, 0
19, 16, 0, 0
19, 17, 0, 0
19, 18, 0, 0
19, 19, 0, 0.3032854199409485
19, 20, 0, 0
19, 21, 0, 0
19, 22, 0, 0
19, 23, 0, 0
19, 24, 0, 0
19, 25, 0, 0.3175792992115021
19, 26, 0, 0
19, 27, 0, 0
19, 28, 0, 0
19, 29, 0, 0
19, 30, 0, 0.3352215886116028
19, 31, 0, 0
19, 32, 0, 0.3352102637290955
19, 33, 0, 0
19, 34, 0, 0.3246901333332062
19, 35, 0, 0
19, 36, 0, 0.3001194000244141
19, 37, 0, 0.3358849883079529
19, 38, 0, 0.2957415878772736
19, 39, 0, 0
19, 40, 0, 0
19, 41, 0, 0.6246190667152405
19, 42, 0, 0
19, 43, 0, 0.3136928975582123
19, 44, 0, 0
19, 45, 0, 0
19, 46, 0, 0
19, 47, 0, 0
19, 48, 0, 0
19, 49, 0, 0
20, 0, 0, 0
20, 1, 0, 0
20, 2, 0, 0
20, 3, 0, 0
20, 4, 0, 0
20, 5, 0, 0
20, 6, 0, 0.342813640832901
20, 7, 0, 0.3218429684638977
20, 8, 0, 0
20, 9, 0, 0
20, 10, 0, 0
20, 11, 0, 0
20, 12, 0, 0
20, 13, 0, 0
20, 14, 0, 0
20, 15, 0, 0
20, 16, 0, 0
20, 17, 0, 0.3208456337451935
20, 18, 0, 0.6674923896789551
20, 19, 0, 0
20, 20, 0, 0
20, 21, 0, 0.2970245480537415
20, 22, 0, 0
20, 23, 0, 0
20, 24, 0, 0.7167915105819702
20, 25, 0, 0
20, 26, 0, 0.3579609990119934
20, 27, 0, 0
20, 28, 0, 0.3419946730136871
20, 29, 0, 0.3326769471168518
20, 30, 0, 0
20, 31, 0, 0.3448526263237
20, 32, 0, 0
20, 33, 0, 0
20, 34, 0, 0
20, 35, 0, 0
20, 36, 0, 0.3407331109046936
20, 37, 0, 0
20, 38, 0, 0
20, 39, 0, 0.3037388026714325
20, 40, 0, 0
20, 41, 0, 0
20, 42, 0, 0.3264196217060089
20, 43, 0, 0
20, 44, 0, 0
20, 45, 0, 0.3112230896949768
20, 46, 0, 0.3487721383571625
20, 47, 0, 0.362001359462738
20, 48, 0, 0
20, 49, 0, 0
21, 0, 0, 0
21, 1, 0, 0
21, 2, 0, 0.3214571177959442
21, 3, 0, 0
21, 4, 0, 0
21, 5, 0, 0
21, 6, 0, 0.3411989808082581
21, 7, 0, 0
21, 8, 0, 0
21, 9, 0, 0.2993049025535583
21, 10, 0, 0
21, 11, 0, 0
21, 12, 0, 0
21, 13, 0, 0
21, 14, 0, 0
21, 15, 0, 0.3211588859558105
21, 16, 0, 0
21, 17, 0, 0.3495085835456848
21, 18, 0, 0
21, 19, 0, 0.3185273706912994
21, 20, 0, 0.3285306394100189
21, 21, 0, 0.3018361926078796
21, 22, 0, 0.6532638669013977
21, 23, 0, 0
21, 24, 0, 0
21, 25, 0, 0.3514396846294403
21, 26, 0, 0
21, 27, 0, 0.3249393999576569
21, 28, 0, 0
21, 29, 0, 0.6003769636154175
21, 30, 0, 0
21, 31, 0, 0
21, 32, 0, 0
21, 33, 0, 0.3080767691135406
21, 34, 0, 0
21, 35, 0, 0
21, 36, 0, 0.3363260626792908
21, 37, 0, 0.6195375323295593
21, 38, 0, 0.3203903436660767
21, 39, 0, 0.3231592774391174
21, 40, 0, 0
21, 41, 0, 0
21, 42, 0, 0.3113604187965393
21, 43, 0, 0.3373090028762817
21, 44, 0, 0.3236522972583771
21, 45, 0, 0
21, 46, 0, 0
21, 47, 0, 0.6466086506843567
21, 48, 0, 0
21, 49, 0, 0
22, 0, 0, 0
22, 1, 0, 0
22, 2, 0, 0
22, 3, 0, 0.6504995226860046
22, 4, 0, 0
22, 5, 0, 0.3301356136798859
22, 6, 0, 0
22, 7, 0, 0
22, 8, 0, 0.3701216280460358
22, 9, 0, 0
22, 10, 0, 0
22, 11, 0, 0
22, 12, 0, 0
22, 13, 0, 0
22, 14, 0, 0.600491464138031
22, 15, 0, 0
22, 16, 0, 0
22, 17, 0, 0
22, 18, 0, 0.9544491767883301
22, 19, 0, 0.3052770793437958
22, 20, 0, 0.3246999680995941
22, 21, 0, 0
22, 22, 0, 0
22, 23, 0, 0
22, 24, 0, 0
22, 25, 0, 0.6758909225463867
22, 26, 0, 0
22, 27, 0, 0
22, 28, 0, 0
22, 29, 0, 0
22, 30, 0, 0
22, 31, 0, 0.3346855640411377
22, 32, 0, 0
22, 33, 0, 0
22, 34, 0, 0.3384049534797668
22, 35, 0, 0
22, 36, 0, 0
22, 37, 0, 0
22, 38, 0, 0
22, 39, 0, 0.6239863634109497
22, 40, 0, 0
22, 41, 0, 0
22, 42, 0, 0.3493992388248444
22, 43, 0, 0.6708484292030334
22, 44, 0, 0
22, 45, 0, 0
22, 46, 0, 0
22, 47, 0, 0
22, 48, 0, 0
22, 49, 0, 0
23, 0, 0, 0
23, 1, 0, 0.2968937456607819
23, 2, 0, 0.3427237868309021
23, 3, 0, 0
23, 4, 0, 0.3065252006053925
23, 5, 0, 0
23, 6, 0, 0.3307830989360809
23, 7, 0, 0
23, 8, 0, 0.3189502954483032
23, 9, 0, 0
23, 10, 0, 0
23, 11, 0, 0.3045588135719299
23, 12, 0, 0
23, 13, 0, 0.3271759748458862
23, 14, 0, 0.326775074005127
23, 15, 0, 0
23, 16, 0, 0
23, 17, 0, 0
23, 18, 0, 0
23, 19, 0, 0
23, 20, 0, 0
23, 21, 0, 0
23, 22, 0, 0
23, 23, 0, 0
23, 24, 0, 0
23, 25, 0, 0
23, 26, 0, 0
23, 27, 0, 0
23, 28, 0, 0.3294120728969574
23, 29, 0, 0
23, 30, 0, 0
23, 31, 0, 0
23, 32, 0, 0.3551133573055267
23, 33, 0, 0
23, 34, 0, 0
23, 35, 0, 0
23, 36, 0, 0
23, 37, 0, 0
23, 38, 0, 0.34553462266922
23, 39, 0, 0
23, 40, 0, 0
23, 41, 0, 0
23, 42, 0, 0
23, 43, 0, 0.342287003993988
23, 44, 0, 0
23, 45, 0, 0.3118502199649811
23, 46, 0, 0.3259089887142181
23, 47, 0, 0.3628478646278381
23, 48, 0, 0
23, 49, 0, 0
24, 0, 0, 0
24, 1, 0, 0
24, 2, 0, 0.3016383051872253
24, 3, 0, 0
24, 4, 0, 0
24, 5, 0, 0.3290780782699585
24, 6, 0, 0
24, 7, 0, 0.3179046213626862
24, 8, 0, 0
24, 9, 0, 0
24, 10, 0, 0.3723720014095306
24, 11, 0, 0
24, 12, 0, 0
24, 13, 0, 0
24, 14, 0, 0
24, 15, 0, 0
24, 16, 0, 0
24, 17, 0, 0.9957427382469177
24, 18, 0, 0.6727659702301025
24, 19, 0, 0
24, 20, 0, 0
24, 21, 0, 0
24, 22, 0, 0
24, 23, 0, 0.3028159439563751
24, 24, 0, 0
24, 25, 0, 0.3027932643890381
24, 26, 0, 0.2839015126228333
24, 27, 0, 0.3451193571090698
24, 28, 0, 0
24, 29, 0, 0
24, 30, 0, 0
24, 31, 0, 0
24, 32, 0, 0.9315758943557739
24, 33, 0, 0
24, 34, 0, 0
24, 35, 0, 0
24, 36, 0, 0
24, 37, 0, 0.3180149793624878
24, 38, 0, 0.3357585966587067
24, 39, 0, 0.3078143298625946
24, 40, 0, 0.3338187336921692
24, 41, 0, 0.3647569715976715
24, 42, 0, 0
24, 43, 0, 0
24, 44, 0, 0.3457195460796356
24, 45, 0, 0
24, 46, 0, 0
24, 47, 0, 0
24, 48, 0, 0
24, 49, 0, 0.3328847289085388
25, 0, 0, 0.3349132537841797
25, 1, 0, 0
25, 2, 0, 0
25, 3, 0, 0
25, 4, 0, 0
25, 5, 0, 0.6710436940193176
25, 6, 0, 0
25, 7, 0, 0
25, 8, 0, 0
25, 9, 0, 0.6174468994140625
25, 10, 0, 0
25, 11, 0, 0
25, 12, 0, 0
25, 13, 0, 0
25, 14, 0, 0.3813048899173737
25, 15, 0, 0
25, 16, 0, 0
25, 17, 0, 0.3149096667766571
25, 18, 0, 0
25, 19, 0, 0
25, 20, 0, 0
25, 21, 0, 0
25, 22, 0, 0
25, 23, 0, 0.6664256453514099
25, 24, 0, 0
25, 25, 0, 0
25, 26, 0, 0
25, 27, 0, 0
25, 28, 0, 0.3244606852531433
25, 29, 0, 0
25, 30, 0, 0
25, 31, 0, 0
25, 32, 0, 0
25, 33, 0, 0
25, 34, 0, 0
25, 35, 0, 0.320225328207016
25, 36, 0, 0
25, 37, 0, 0.3712019026279449
25, 38, 0, 0
25, 39, 0, 0.6560324430465698
25, 40, 0, 0
25, 41, 0, 0.3333078324794769
25, 42, 0, 0
25, 43, 0, 0
25, 44, 0, 0
25, 45, 0, 0.30777707695961
25, 46, 0, 0.3344822525978088
25, 47, 0, 0
25, 48, 0, 0.359304815530777
25, 49, 0, 0
26, 0, 0, 0.2916730344295502
26, 1, 0, 0
26, 2, 0, 0.328691691160202
26, 3, 0, 0.3061803877353668
26, 4, 0, 0.2904993295669556
26, 5, 0, 0
26, 6, 0, 0
26, 7, 0, 0
26, 8, 0, 0.3131324648857117
26, 9, 0, 0
26, 10, 0, 0.3529952168464661
26, 11, 0, 0
26, 12, 0, 0
26, 13, 0, 0
26, 14, 0, 0
26, 15, 0, 0.3201296329498291
26, 16, 0, 0
26, 17, 0, 0.3080161213874817
26, 18, 0, 0.317981481552124
26, 19, 0, 0
26, 20, 0, 0
26, 21, 0, 0
26, 22, 0, 0
26, 23, 0, 0
26, 24, 0, 0
26, 25, 0, 0.6241483688354492
26, 26, 0, 0
26, 27, 0, 0
26, 28, 0, 0.3027517795562744
26, 29, 0, 0.3203275203704834
26, 30, 0, 0.3388696610927582
26, 31, 0, 0
26, 32, 0, 0.3091889321804047
26, 33, 0, 0
26, 34, 0, 0.3412289321422577
26, 35, 0, 0.3248814642429352
26, 36, 0, 0.3541387021541595
26, 37, 0, 0
26, 38, 0, 0
26, 39, 0, 0.3087309896945953
26, 40, 0, 0
26, 41, 0, 0
26, 42, 0, 0
26, 43, 0, 0
26, 44, 0, 0
26, 45, 0, 0
26, 46, 0, 0
26, 47, 0, 0
26, 48, 0, 0.3229853212833405
26, 49, 0, 0
27, 0, 0, 0
27, 1, 0, 0.3273957669734955
27, 2, 0, 0.3452024459838867
27, 3, 0, 0.3168400824069977
27, 4, 0, 0
27, 5, 0, 0
27, 6, 0, 0.6395577192306519
27, 7, 0, 0.3184435367584229
27, 8, 0, 0.3422697782516479
27, 9, 0, 0
27, 10, 0, 0
27, 11, 0, 0
27, 12, 0, 0
27, 13, 0, 0
27, 14, 0, 0
27, 15, 0, 0
27, 16, 0, 0.3529188334941864
27, 17, 0, 0
27, 18, 0, 0
27, 19, 0, 0.3485473096370697
27, 20, 0, 0.2941374480724335
27, 21, 0, 0.3650967180728912
27, 22, 0, 0
27, 23, 0, 0
27, 24, 0, 0
27, 25, 0, 0
27, 26, 0, 0.3298616111278534
27, 27, 0, 0
27, 28, 0, 0.3375853300094604
27, 29, 0, 0
27, 30, 0, 0
27, 31, 0, 0
27, 32, 0, 0
27, 33, 0, 0
27, 34, 0, 0
27, 35, 0, 0
27, 36, 0, 0
27, 37, 0, 0
27, 38, 0, 0
27, 39, 0, 0
27, 40, 0, 0.3126288950443268
27, 41, 0, 0
27, 42, 0, 0
27, 43, 0, 0.3223738670349121
27, 44, 0, 0.3245892822742462
27, 45, 0, 0
27, 46, 0, 0
27, 47, 0, 0
27, 48, 0, 0.645607054233551
27, 49, 0, 0.3413105905056
28, 0, 0, 0.3225501775741577
28, 1, 0, 0
28, 2, 0, 0
28, 3, 0, 0
28, 4, 0, 0
28, 5, 0, 0
28, 6, 0, 0.3518041372299194
28, 7, 0, 0
28, 8, 0, 0
28, 9, 0, 0
28, 10, 0, 0
28, 11, 0, 0.3317399621009827
28, 12, 0, 0.3252469301223755
28, 13, 0, 0.3333343267440796
28, 14, 0, 0
28, 15, 0, 0.6815066337585449
28, 16, 0, 0
28, 17, 0, 0.9854046702384949
28, 18, 0, 0
28, 19, 0, 0.3230493068695068
28, 20, 0, 0
28, 21, 0, 0
28, 22, 0, 0.3419283330440521
28, 23, 0, 0
28, 24, 0, 0
28, 25, 0, 0
28, 26, 0, 0
28, 27, 0, 0
28, 28, 0, 0
28, 29, 0, 0.3233271837234497
28, 30, 0, 0.3172139525413513
28, 31, 0, 0
28, 32, 0, 0.2857051491737366
28, 33, 0, 0
28, 34, 0, 0
28, 35, 0, 0
28, 36, 0, 0.3432521522045135
28, 37, 0, 0
28, 38, 0, 0
28, 39, 0, 0
28, 40, 0, 0.3225853741168976
28, 41, 0, 0.3658112585544586
28, 42, 0, 0.2840222418308258
28, 43, 0, 0
28, 44, 0, 0
28, 45, 0, 0
28, 46, 0, 0.3077076375484467
28, 47, 0, 0
28, 48, 0, 0
28, 49, 0, 0.3031193017959595
29, 0, 0, 0.3139978647232056
29, 1, 0, 0
29, 2, 0, 0
29, 3, 0, 0
29, 4, 0, 0.3244571387767792
29, 5, 0, 0
29, 6, 0, 0
29, 7, 0, 0.9801101684570312
29, 8, 0, 0
29, 9, 0, 0
29, 10, 0, 0
29, 11, 0, 0
29, 12, 0, 0
29, 13, 0, 0
29, 14, 0, 0.3319418728351593
29, 15, 0, 0.311904639005661
29, 16, 0, 0
29, 17, 0, 0
29, 18, 0, 0
29, 19, 0, 0.6522290706634521
29, 20, 0, 0
29, 21, 0, 0
29, 22, 0, 0
29, 23, 0, 0
29, 24, 0, 0
29, 25, 0, 0
29, 26, 0, 0
29, 27, 0, 0
29, 28, 0, 0
29, 29, 0, 0
29, 30, 0, 0
29, 31, 0, 0
29, 32, 0, 0
29, 33, 0, 0.6457729935646057
29, 34, 0, 0
29, 35, 0, 0
29, 36, 0, 0
29, 37, 0, 0.3156282603740692
29, 38, 0, 0
29, 39, 0, 0
29, 40, 0, 0.3034022748470306
29, 41, 0, 0.3141363263130188
29, 42, 0, 0.9333305954933167
29, 43, 0, 0
29, 44, 0, 0
29, 45, 0, 0
29, 46, 0, 0
29, 47, 0, 0
29, 48, 0, 0
29, 49, 0, 0.2979765236377716
30, 0, 0, 0
30, 1, 0, 0
30, 2, 0, 0.3247891366481781
30, 3, 0, 0.2938463389873505
30, 4, 0, 0.9579747915267944
30, 5, 0, 0.3183025121688843
30, 6, 0, 0.6668161749839783
30, 7, 0, 0.3383699059486389
30, 8, 0, 0
30, 9, 0, 0
30, 10, 0, 0
30, 11, 0, 0
30, 12, 0, 0
30, 13, 0, 0
30, 14, 0, 0.3091087937355042
30, 15, 0, 0
30, 16, 0, 0.3420442640781403
30, 17, 0, 0
30, 18, 0, 0.3547778427600861
30, 19, 0, 0
30, 20, 0, 0
30, 21, 0, 0
30, 22, 0, 0
30, 23, 0, 0.3355578780174255
30, 24, 0, 0.3439356982707977
30, 25, 0, 0
30, 26, 0, 0
30, 27, 0, 0.3359605669975281
30, 28, 0, 0
30, 29, 0, 0.347314327955246
30, 30, 0, 0
30, 31, 0, 0
30, 32, 0, 0.3513284623622894
30, 33, 0, 0.701227605342865
30, 34, 0, 0
30, 35, 0, 0
30, 36, 0, 0
30, 37, 0, 0.3066257834434509
30, 38, 0, 0.3396020233631134
30, 39, 0, 0.3349618911743164
30, 40, 0, 0
30, 41, 0, 0.3209592700004578
30, 42, 0, 0
30, 43, 0, 0
30, 44, 0, 0
30, 45, 0, 0.3340407609939575
30, 46, 0, 0
30, 47, 0, 0
30, 48, 0, 0
30, 49, 0, 0
31, 0, 0, 0.3220155239105225
31, 1, 0, 0
31, 2, 0, 0
31, 3, 0, 0
31, 4, 0, 0
31, 5, 0, 0
31, 6, 0, 0
31, 7, 0, 0
31, 8, 0, 0.3058867156505585
31, 9, 0, 0
31, 10, 0, 0
31, 11, 0, 0
31, 12, 0, 0
31, 13, 0, 0
31, 14, 0, 0.634596049785614
31, 15, 0, 0
31, 16, 0, 0.298494815826416
31, 17, 0, 0
31, 18, 0, 0
31, 19, 0, 0
31, 20, 0, 0
31, 21, 0, 0
31, 22, 0, 0
31, 23, 0, 0
31, 24, 0, 0
31, 25, 0, 0
31, 26, 0, 0
31, 27, 0, 0.322896271944046
31, 28, 0, 0.3410519957542419
31, 29, 0, 0.3119301497936249
31, 30, 0, 0
31, 31, 0, 0.3087206482887268
31, 32, 0, 0.335065633058548
31, 33, 0, 0
31, 34, 0, 0
31, 35, 0, 0
31, 36, 0, 0.332061767578125
31, 37, 0, 0
31, 38, 0, 0
31, 39, 0, 0.3206835389137268
31, 40, 0, 0
31, 41, 0, 0
31, 42, 0, 0
31, 43, 0, 0
31, 44, 0, 0.3141549825668335
31, 45, 0, 0
31, 46, 0, 0
31, 47, 0, 0
31, 48, 0, 0
31, 49, 0, 0.332737147808075
32, 0, 0, 0
32, 1, 0, 0
32, 2, 0, 0
32, 3, 0, 0
32, 4, 0, 0.3376371562480927
32, 5, 0, 0.9427779316902161
32, 6, 0, 0
32, 7, 0, 0
32, 8, 0, 0
32, 9, 0, 0
32, 10, 0, 0
32, 11, 0, 0
32, 12, 0, 0
32, 13, 0, 0
32, 14, 0, 0
32, 15, 0, 0
32, 16, 0, 0
32, 17, 0, 0
32, 18, 0, 0
32, 19, 0, 0
32, 20, 0, 0
32, 21, 0, 0.3182422518730164
32, 22, 0, 0
32, 23, 0, 0.3535019755363464
32, 24, 0, 0.321236252784729
32, 25, 0, 0
32, 26, 0, 0.3258306384086609
32, 27, 0, 0
32, 28, 0, 0
32, 29, 0, 0
32, 30, 0, 0
32, 31, 0, 0
32, 32, 0, 0.9510608911514282
32, 33, 0, 0.3067505955696106
32, 34, 0, 0.3257255256175995
32, 35, 0, 0
32, 36, 0, 0.3377931714057922
32, 37, 0, 0
32, 38, 0, 0
32, 39, 0, 0.3192867934703827
32, 40, 0, 0
32, 41, 0, 0.3245510458946228
32, 42, 0, 0
32, 43, 0, 0
32, 44, 0, 0.3081588745117188
32, 45, 0, 0
32, 46, 0, 0
32, 47, 0, 0
32, 48, 0, 0
32, 49, 0, 0.3160112202167511
33, 0, 0, 0.3449404239654541
