# TOPAS Version: 3.7
# Parameter File: main
# Results for scorer dose
# Scored in component: Patch
# X in 50 bins of 0.0002 cm
# Y in 50 bins of 0.0002 cm
# Z in 1 bin  of 0.003 cm
# DoseToMedium ( Gy ) : Sum   
0, 0, 0, 2.162369012832642
0, 1, 0, 2.778367757797241
0, 2, 0, 0.6480675935745239
0, 3, 0, 1.92397677898407
0, 4, 0, 1.947997570037842
0, 5, 0, 1.312662124633789
0, 6, 0, 2.570865154266357
0, 7, 0, 3.288584232330322
0, 8, 0, 2.716548204421997
0, 9, 0, 1.999703764915466
0, 10, 0, 0.6663268208503723
0, 11, 0, 2.593026876449585
0, 12, 0, 0.6513082385063171
0, 13, 0, 1.668370246887207
0, 14, 0, 0.6689504981040955
0, 15, 0, 2.931859731674194
0, 16, 0, 1.026397466659546
0, 17, 0, 1.255954623222351
0, 18, 0, 2.320162296295166
0, 19, 0, 2.032982110977173
0, 20, 0, 1.63214647769928
0, 21, 0, 2.868428707122803
0, 22, 0, 1.638654708862305
0, 23, 0, 1.625470161437988
0, 24, 0, 0.9146175980567932
0, 25, 0, 1.410984873771667
0, 26, 0, 1.326351404190063
0, 27, 0, 1.217793941497803
0, 28, 0, 0.9622958898544312
0, 29, 0, 2.279205560684204
0, 30, 0, 3.341374397277832
0, 31, 0, 2.899378299713135
0, 32, 0, 1.630455136299133
0, 33, 0, 0.6687015891075134
0, 34, 0, 0.9813811182975769
0, 35, 0, 0.6243124008178711
0, 36, 0, 1.264872312545776
0, 37, 0, 1.677449703216553
0, 38, 0, 1.348885774612427
0, 39, 0, 1.618252515792847
0, 40, 0, 0.2961632013320923
0, 41, 0, 2.300691843032837
0, 42, 0, 2.517637014389038
0, 43, 0, 1.618581533432007
0, 44, 0, 1.628188610076904
0, 45, 0, 2.186601161956787
0, 46, 0, 1.933230876922607
0, 47, 0, 1.654542565345764
0, 48, 0, 1.949932456016541
0, 49, 0, 2.539632558822632
1, 0, 0, 1.850436449050903
1, 1, 0, 2.32921028137207
1, 2, 0, 1.669244289398193
1, 3, 0, 0.9970660805702209
1, 4, 0, 1.503584265708923
1, 5, 0, 2.722740411758423
1, 6, 0, 0.9381845593452454
1, 7, 0, 1.276311159133911
1, 8, 0, 1.695027947425842
1, 9, 0, 1.549472689628601
1, 10, 0, 0.682816207408905
1, 11, 0, 2.629634618759155
1, 12, 0, 0.9856144785881042
1, 13, 0, 2.014451265335083
1, 14, 0, 0.9907941222190857
1, 15, 0, 1.311357975006104
1, 16, 0, 1.269291996955872
1, 17, 0, 1.868793964385986
1, 18, 0, 2.23204493522644
1, 19, 0, 2.867013931274414
1, 20, 0, 1.946659445762634
1, 21, 0, 2.279724597930908
1, 22, 0, 1.964040756225586
1, 23, 0, 1.242792367935181
1, 24, 0, 0.9241276979446411
1, 25, 0, 2.931559085845947
1, 26, 0, 1.673134803771973
1, 27, 0, 1.670853018760681
1, 28, 0, 1.195598483085632
1, 29, 0, 1.53956139087677
1, 30, 0, 2.294960498809814
1, 31, 0, 0.6241146326065063
1, 32, 0, 2.036082744598389
1, 33, 0, 1.272586822509766
1, 34, 0, 1.33211088180542
1, 35, 0, 1.825089335441589
1, 36, 0, 1.328162431716919
1, 37, 0, 0.6619551777839661
1, 38, 0, 2.227860450744629
1, 39, 0, 2.315819501876831
1, 40, 0, 2.607616424560547
1, 41, 0, 2.485983610153198
1, 42, 0, 0.9437298774719238
1, 43, 0, 0.6729473471641541
1, 44, 0, 2.662999868392944
1, 45, 0, 2.592780113220215
1, 46, 0, 1.61980926990509
1, 47, 0, 0.9723184108734131
1, 48, 0, 0
1, 49, 0, 1.317768096923828
2, 0, 0, 1.640679240226746
2, 1, 0, 2.52253532409668
2, 2, 0, 2.62773323059082
2, 3, 0, 2.235965013504028
2, 4, 0, 2.407781362533569
2, 5, 0, 0.6254900693893433
2, 6, 0, 0.6395196914672852
2, 7, 0, 2.320241928100586
2, 8, 0, 0.9609566330909729
2, 9, 0, 0.6176142692565918
2, 10, 0, 3.22262167930603
2, 11, 0, 2.60265064239502
2, 12, 0, 1.972203016281128
2, 13, 0, 0.674831748008728
2, 14, 0, 2.008752822875977
2, 15, 0, 2.581996917724609
2, 16, 0, 1.014182090759277
2, 17, 0, 1.01034414768219
2, 18, 0, 2.011309862136841
2, 19, 0, 2.997494220733643
2, 20, 0, 1.617915749549866
2, 21, 0, 1.865767121315002
2, 22, 0, 1.883159041404724
2, 23, 0, 1.314202070236206
2, 24, 0, 1.199651837348938
2, 25, 0, 1.27397096157074
2, 26, 0, 0.6882869601249695
2, 27, 0, 0.6427989602088928
2, 28, 0, 1.970915913581848
2, 29, 0, 1.546641230583191
2, 30, 0, 0.9759922027587891
2, 31, 0, 1.312097072601318
2, 32, 0, 0.6470077037811279
2, 33, 0, 0.9542508721351624
2, 34, 0, 0.9928684830665588
2, 35, 0, 1.335378766059875
2, 36, 0, 0.6775863766670227
2, 37, 0, 1.94238817691803
2, 38, 0, 2.32373571395874
2, 39, 0, 1.96391224861145
2, 40, 0, 1.994597434997559
2, 41, 0, 2.221149682998657
2, 42, 0, 1.012695670127869
2, 43, 0, 2.623289346694946
2, 44, 0, 0.6387441158294678
2, 45, 0, 2.184692621231079
2, 46, 0, 0.9386048913002014
2, 47, 0, 1.340616941452026
2, 48, 0, 1.299810409545898
2, 49, 0, 2.603240013122559
3, 0, 0, 1.986592292785645
3, 1, 0, 1.632724046707153
3, 2, 0, 1.621754884719849
3, 3, 0, 0.6376971006393433
3, 4, 0, 1.301949501037598
3, 5, 0, 1.621946454048157
3, 6, 0, 1.348226070404053
3, 7, 0, 1.696769118309021
3, 8, 0, 1.609577775001526
3, 9, 0, 1.955241680145264
3, 10, 0, 2.191079139709473
3, 11, 0, 1.602014064788818
3, 12, 0, 1.965041995048523
3, 13, 0, 1.298360466957092
3, 14, 0, 2.216968536376953
3, 15, 0, 1.641386389732361
3, 16, 0, 2.049412727355957
3, 17, 0, 0.3189412355422974
3, 18, 0, 1.000107526779175
3, 19, 0, 1.620218515396118
3, 20, 0, 2.329875946044922
3, 21, 0, 0.9426491856575012
3, 22, 0, 1.61136531829834
3, 23, 0, 1.697685837745667
3, 24, 0, 0.6268203854560852
3, 25, 0, 1.944920659065247
3, 26, 0, 0.9684861302375793
3, 27, 0, 1.573397994041443
3, 28, 0, 1.313966989517212
3, 29, 0, 1.363295435905457
3, 30, 0, 2.181601524353027
3, 31, 0, 2.037902355194092
3, 32, 0, 0.9325589537620544
3, 33, 0, 3.744297504425049
3, 34, 0, 2.603062868118286
3, 35, 0, 2.240205764770508
3, 36, 0, 1.62641441822052
3, 37, 0, 3.121568918228149
3, 38, 0, 1.708390474319458
3, 39, 0, 3.453565835952759
3, 40, 0, 3.62340235710144
3, 41, 0, 1.579456686973572
3, 42, 0, 1.984062671661377
3, 43, 0, 2.205248832702637
3, 44, 0, 1.876191735267639
3, 45, 0, 2.277153968811035
3, 46, 0, 1.283950805664062
3, 47, 0, 1.022784948348999
3, 48, 0, 0.981934666633606
3, 49, 0, 1.610260248184204
4, 0, 0, 3.113876819610596
4, 1, 0, 1.624207615852356
4, 2, 0, 0.973701536655426
4, 3, 0, 3.186625957489014
4, 4, 0, 2.28162670135498
4, 5, 0, 1.964051604270935
4, 6, 0, 2.238867044448853
4, 7, 0, 2.680710792541504
4, 8, 0, 2.284608364105225
4, 9, 0, 1.972536563873291
4, 10, 0, 0.6205761432647705
4, 11, 0, 2.238713979721069
4, 12, 0, 1.912690043449402
4, 13, 0, 3.202496528625488
4, 14, 0, 1.96662449836731
4, 15, 0, 2.15551233291626
4, 16, 0, 1.944935083389282
4, 17, 0, 3.258078098297119
4, 18, 0, 1.328516602516174
4, 19, 0, 2.573412179946899
4, 20, 0, 2.298026084899902
4, 21, 0, 2.671181201934814
4, 22, 0, 1.215126276016235
4, 23, 0, 2.310561656951904
4, 24, 0, 1.614076733589172
4, 25, 0, 1.987236857414246
4, 26, 0, 0.9621812105178833
4, 27, 0, 2.29741096496582
4, 28, 0, 1.319544076919556
4, 29, 0, 2.95325756072998
4, 30, 0, 0.9918609857559204
4, 31, 0, 1.203415870666504
4, 32, 0, 1.96861743927002
4, 33, 0, 1.95690929889679
4, 34, 0, 0.9714363217353821
4, 35, 0, 2.435116052627563
4, 36, 0, 1.345475912094116
4, 37, 0, 1.675773739814758
4, 38, 0, 1.311399817466736
4, 39, 0, 0.6145910024642944
4, 40, 0, 2.242922782897949
4, 41, 0, 1.210914134979248
4, 42, 0, 0.6942811012268066
4, 43, 0, 0.6046286821365356
4, 44, 0, 2.227844953536987
4, 45, 0, 1.028436422348022
4, 46, 0, 1.619096159934998
4, 47, 0, 1.659368276596069
4, 48, 0, 2.907541990280151
4, 49, 0, 1.649134278297424
5, 0, 0, 1.629834294319153
5, 1, 0, 1.276164054870605
5, 2, 0, 1.304166436195374
5, 3, 0, 1.589386105537415
5, 4, 0, 1.325648903846741
5, 5, 0, 2.180148124694824
5, 6, 0, 2.280991792678833
5, 7, 0, 0.9966046810150146
5, 8, 0, 1.400853037834167
5, 9, 0, 2.598996639251709
5, 10, 0, 0.947540283203125
5, 11, 0, 2.377506256103516
5, 12, 0, 1.259171962738037
5, 13, 0, 1.594001173973083
5, 14, 0, 0.2831928133964539
5, 15, 0, 1.299589395523071
5, 16, 0, 0.5890077352523804
5, 17, 0, 0.9498491287231445
5, 18, 0, 1.273298501968384
5, 19, 0, 0.6275303363800049
5, 20, 0, 2.316607475280762
5, 21, 0, 2.267455339431763
5, 22, 0, 1.641940116882324
5, 23, 0, 1.974516272544861
5, 24, 0, 2.643009901046753
5, 25, 0, 1.265293717384338
5, 26, 0, 0.6562372446060181
5, 27, 0, 1.037340998649597
5, 28, 0, 2.28586220741272
5, 29, 0, 1.623907685279846
5, 30, 0, 1.271988391876221
5, 31, 0, 1.968553066253662
5, 32, 0, 1.342469692230225
5, 33, 0, 2.263299703598022
5, 34, 0, 0.9002285599708557
5, 35, 0, 2.188205718994141
5, 36, 0, 1.575863122940063
5, 37, 0, 1.327043771743774
5, 38, 0, 0.9953481554985046
5, 39, 0, 2.874775648117065
5, 40, 0, 1.000539302825928
5, 41, 0, 0.6758242845535278
5, 42, 0, 2.685435056686401
5, 43, 0, 2.326390743255615
5, 44, 0, 1.82881760597229
5, 45, 0, 1.955770373344421
5, 46, 0, 2.940571069717407
5, 47, 0, 1.596772789955139
5, 48, 0, 0.9779020547866821
5, 49, 0, 1.69830060005188
6, 0, 0, 1.938395857810974
6, 1, 0, 1.602474570274353
6, 2, 0, 2.58988881111145
6, 3, 0, 0.9252489805221558
6, 4, 0, 1.004038691520691
6, 5, 0, 1.943877339363098
6, 6, 0, 2.60723614692688
6, 7, 0, 2.958278179168701
6, 8, 0, 2.659487724304199
6, 9, 0, 1.636821627616882
6, 10, 0, 1.951718211174011
6, 11, 0, 2.512205362319946
6, 12, 0, 1.866471767425537
6, 13, 0, 2.951250314712524
6, 14, 0, 1.303437471389771
6, 15, 0, 1.004141330718994
6, 16, 0, 1.656258463859558
6, 17, 0, 1.278711318969727
6, 18, 0, 3.612577438354492
6, 19, 0, 1.973046779632568
6, 20, 0, 2.562167167663574
6, 21, 0, 1.015824913978577
6, 22, 0, 0.9348340034484863
6, 23, 0, 0.942776083946228
6, 24, 0, 1.696084499359131
6, 25, 0, 1.950738191604614
6, 26, 0, 1.98879075050354
6, 27, 0, 1.2444908618927
6, 28, 0, 1.665082335472107
6, 29, 0, 1.645561933517456
6, 30, 0, 2.237570762634277
6, 31, 0, 1.670074462890625
6, 32, 0, 0.3331707417964935
6, 33, 0, 2.708915233612061
6, 34, 0, 3.808545112609863
6, 35, 0, 0.3053325712680817
6, 36, 0, 3.242718696594238
6, 37, 0, 1.284335613250732
6, 38, 0, 2.648446321487427
6, 39, 0, 1.048028945922852
6, 40, 0, 2.028056144714355
6, 41, 0, 0.6742410063743591
6, 42, 0, 2.64254903793335
6, 43, 0, 1.550708770751953
6, 44, 0, 2.324238777160645
6, 45, 0, 1.99074912071228
6, 46, 0, 1.324363827705383
6, 47, 0, 2.238997459411621
6, 48, 0, 1.649600744247437
6, 49, 0, 2.02494478225708
7, 0, 0, 1.591014623641968
7, 1, 0, 2.603708744049072
7, 2, 0, 1.664107322692871
7, 3, 0, 1.010294318199158
7, 4, 0, 0
7, 5, 0, 2.835549592971802
7, 6, 0, 2.373856544494629
7, 7, 0, 1.969896078109741
7, 8, 0, 2.264680147171021
7, 9, 0, 2.339812517166138
7, 10, 0, 1.553989291191101
7, 11, 0, 2.677431344985962
7, 12, 0, 0.6295323371887207
7, 13, 0, 0.8974273204803467
7, 14, 0, 2.278146743774414
7, 15, 0, 1.952549576759338
7, 16, 0, 1.603263974189758
7, 17, 0, 1.276285886764526
7, 18, 0, 0.6039630174636841
7, 19, 0, 1.94231390953064
7, 20, 0, 1.85243821144104
7, 21, 0, 0.642004132270813
7, 22, 0, 1.640076518058777
7, 23, 0, 1.015336751937866
7, 24, 0, 1.680914282798767
7, 25, 0, 0.969586968421936
7, 26, 0, 0.6274383068084717
7, 27, 0, 1.921896576881409
7, 28, 0, 1.024065971374512
7, 29, 0, 1.935618162155151
7, 30, 0, 0.9501555562019348
7, 31, 0, 1.292283773422241
7, 32, 0, 2.000492095947266
7, 33, 0, 1.032315373420715
7, 34, 0, 0.9584550261497498
7, 35, 0, 1.600252985954285
7, 36, 0, 2.582919359207153
7, 37, 0, 0.9736533164978027
7, 38, 0, 2.623785734176636
7, 39, 0, 2.525642156600952
7, 40, 0, 0.9636597037315369
7, 41, 0, 1.375366449356079
7, 42, 0, 2.553043842315674
7, 43, 0, 0.9673558473587036
7, 44, 0, 2.256839990615845
7, 45, 0, 2.497653722763062
7, 46, 0, 0.9170714020729065
7, 47, 0, 1.700014591217041
7, 48, 0, 1.258901357650757
7, 49, 0, 1.625117301940918
8, 0, 0, 1.284375429153442
8, 1, 0, 2.549884796142578
8, 2, 0, 2.343215227127075
8, 3, 0, 0.9692918658256531
8, 4, 0, 0.6614037156105042
8, 5, 0, 1.930408835411072
8, 6, 0, 1.587385535240173
8, 7, 0, 2.521492958068848
8, 8, 0, 1.299508690834045
8, 9, 0, 1.319765210151672
8, 10, 0, 1.022242188453674
8, 11, 0, 0.5975703597068787
8, 12, 0, 3.276010513305664
8, 13, 0, 2.02009391784668
8, 14, 0, 2.585011005401611
8, 15, 0, 1.294572591781616
8, 16, 0, 0.7043046355247498
8, 17, 0, 1.605183482170105
8, 18, 0, 3.504771947860718
8, 19, 0, 1.642435073852539
8, 20, 0, 1.587945103645325
8, 21, 0, 1.029746651649475
8, 22, 0, 2.564208269119263
8, 23, 0, 1.303804516792297
8, 24, 0, 1.329815268516541
8, 25, 0, 1.588953137397766
8, 26, 0, 0.971048891544342
8, 27, 0, 1.975664258003235
8, 28, 0, 1.959738373756409
8, 29, 0, 3.605484247207642
8, 30, 0, 1.978318810462952
8, 31, 0, 1.629101634025574
8, 32, 0, 0.9644935131072998
8, 33, 0, 2.003028869628906
8, 34, 0, 0.9881436824798584
8, 35, 0, 0.7299277782440186
8, 36, 0, 1.032914042472839
8, 37, 0, 2.04417896270752
8, 38, 0, 0.6947759985923767
8, 39, 0, 1.993305087089539
8, 40, 0, 2.819567441940308
8, 41, 0, 2.019679307937622
8, 42, 0, 1.557275414466858
8, 43, 0, 1.308519601821899
8, 44, 0, 2.019085884094238
8, 45, 0, 2.547102212905884
8, 46, 0, 2.393202304840088
8, 47, 0, 0.9919520020484924
8, 48, 0, 1.233399868011475
8, 49, 0, 1.713922739028931
9, 0, 0, 1.980252861976624
9, 1, 0, 0.9871318936347961
9, 2, 0, 2.543964385986328
9, 3, 0, 0.9964087605476379
9, 4, 0, 1.613622307777405
9, 5, 0, 2.535186052322388
9, 6, 0, 2.675732851028442
9, 7, 0, 0.6814236640930176
9, 8, 0, 1.322668671607971
9, 9, 0, 0.9731956124305725
9, 10, 0, 1.307916522026062
9, 11, 0, 0.657602071762085
9, 12, 0, 1.962475061416626
9, 13, 0, 1.635557293891907
9, 14, 0, 3.23415470123291
9, 15, 0, 1.290941596031189
9, 16, 0, 1.906782031059265
9, 17, 0, 1.663751363754272
9, 18, 0, 1.978387832641602
9, 19, 0, 2.025607109069824
9, 20, 0, 1.624571681022644
9, 21, 0, 2.237062931060791
9, 22, 0, 1.576179027557373
9, 23, 0, 1.016788959503174
9, 24, 0, 0.6435641646385193
9, 25, 0, 2.88264012336731
9, 26, 0, 1.607216000556946
9, 27, 0, 1.381310343742371
9, 28, 0, 1.968839645385742
9, 29, 0, 1.593196392059326
9, 30, 0, 1.31224513053894
9, 31, 0, 0.9667308926582336
9, 32, 0, 0.6178942918777466
9, 33, 0, 0.9480979442596436
9, 34, 0, 1.243011236190796
9, 35, 0, 1.5882408618927
9, 36, 0, 0.6433883309364319
9, 37, 0, 2.963337898254395
9, 38, 0, 1.274740815162659
9, 39, 0, 0.6256632208824158
9, 40, 0, 1.58119785785675
9, 41, 0, 3.257314682006836
9, 42, 0, 0.9919735193252563
9, 43, 0, 1.651766061782837
9, 44, 0, 3.048140048980713
9, 45, 0, 0.638592004776001
9, 46, 0, 1.941027760505676
9, 47, 0, 2.604437828063965
9, 48, 0, 1.604401230812073
9, 49, 0, 4.103878498077393
10, 0, 0, 1.284831762313843
10, 1, 0, 1.600917458534241
10, 2, 0, 2.620417356491089
10, 3, 0, 0.9969717264175415
10, 4, 0, 1.516368865966797
10, 5, 0, 1.952685952186584
10, 6, 0, 0.3479456901550293
10, 7, 0, 1.933379769325256
10, 8, 0, 1.618407487869263
10, 9, 0, 1.312407970428467
10, 10, 0, 1.398431658744812
10, 11, 0, 2.364096403121948
10, 12, 0, 0.6384871006011963
10, 13, 0, 1.624426603317261
10, 14, 0, 1.642909169197083
10, 15, 0, 2.308093309402466
10, 16, 0, 1.284622311592102
10, 17, 0, 1.692419052124023
10, 18, 0, 0.9332823157310486
10, 19, 0, 1.886540293693542
10, 20, 0, 1.983028173446655
10, 21, 0, 1.895146489143372
10, 22, 0, 1.247049689292908
10, 23, 0, 2.310874938964844
10, 24, 0, 1.31670069694519
10, 25, 0, 0.9852999448776245
10, 26, 0, 1.947534799575806
10, 27, 0, 1.005970597267151
10, 28, 0, 0.991463303565979
10, 29, 0, 1.888513565063477
10, 30, 0, 0.6544511318206787
10, 31, 0, 3.362987279891968
10, 32, 0, 1.290336608886719
10, 33, 0, 1.330695271492004
10, 34, 0, 0.6643905639648438
10, 35, 0, 2.894062519073486
10, 36, 0, 1.894540190696716
10, 37, 0, 1.030059218406677
10, 38, 0, 3.353274583816528
10, 39, 0, 1.628043055534363
10, 40, 0, 1.658336758613586
10, 41, 0, 1.388473153114319
10, 42, 0, 1.266542434692383
10, 43, 0, 1.582469820976257
10, 44, 0, 2.298635721206665
10, 45, 0, 2.001839399337769
10, 46, 0, 0.6204288005828857
10, 47, 0, 1.593770742416382
10, 48, 0, 1.016607880592346
10, 49, 0, 1.600040555000305
11, 0, 0, 2.235920667648315
11, 1, 0, 2.00568413734436
11, 2, 0, 1.617020726203918
11, 3, 0, 1.269661426544189
11, 4, 0, 0.6322648525238037
11, 5, 0, 1.30785346031189
11, 6, 0, 0.6430596709251404
11, 7, 0, 1.967070341110229
11, 8, 0, 1.662034153938293
11, 9, 0, 2.655390977859497
11, 10, 0, 0.6389390230178833
11, 11, 0, 0.344080924987793
11, 12, 0, 1.932539343833923
11, 13, 0, 1.380969882011414
11, 14, 0, 1.646352887153625
11, 15, 0, 2.298439264297485
11, 16, 0, 1.602385759353638
11, 17, 0, 2.618508815765381
11, 18, 0, 1.254513740539551
11, 19, 0, 1.225417017936707
11, 20, 0, 1.636337518692017
11, 21, 0, 1.897472381591797
11, 22, 0, 2.012240409851074
11, 23, 0, 0.3025727272033691
11, 24, 0, 1.648401498794556
11, 25, 0, 2.027502059936523
11, 26, 0, 2.61369252204895
11, 27, 0, 2.270382642745972
11, 28, 0, 1.650180339813232
11, 29, 0, 2.263579845428467
11, 30, 0, 0.9434133172035217
11, 31, 0, 0.6573360562324524
11, 32, 0, 1.289469838142395
11, 33, 0, 3.379846811294556
11, 34, 0, 2.342753410339355
11, 35, 0, 1.251195907592773
11, 36, 0, 1.5307776927948
11, 37, 0, 1.679767370223999
11, 38, 0, 2.291242837905884
11, 39, 0, 1.640922784805298
11, 40, 0, 1.346275568008423
11, 41, 0, 0.9388683438301086
11, 42, 0, 2.77639627456665
11, 43, 0, 2.312462329864502
11, 44, 0, 1.929597616195679
11, 45, 0, 0.6461396813392639
11, 46, 0, 3.209565401077271
11, 47, 0, 1.286473870277405
11, 48, 0, 1.352234244346619
11, 49, 0, 3.187695980072021
12, 0, 0, 2.583432912826538
12, 1, 0, 0.2900474965572357
12, 2, 0, 2.377758502960205
12, 3, 0, 1.313883423805237
12, 4, 0, 1.009133815765381
12, 5, 0, 2.024687528610229
12, 6, 0, 1.965936779975891
12, 7, 0, 0.9620755314826965
12, 8, 0, 0.3259291052818298
12, 9, 0, 2.965502500534058
12, 10, 0, 1.614547610282898
12, 11, 0, 2.006534814834595
12, 12, 0, 2.921354532241821
12, 13, 0, 1.636308073997498
12, 14, 0, 1.714370608329773
12, 15, 0, 2.531123876571655
12, 16, 0, 2.293367624282837
12, 17, 0, 1.285613179206848
12, 18, 0, 1.918104767799377
12, 19, 0, 1.586751341819763
12, 20, 0, 0.695966899394989
12, 21, 0, 0.9661334753036499
12, 22, 0, 0.3028610348701477
12, 23, 0, 1.662938952445984
12, 24, 0, 1.338857531547546
12, 25, 0, 1.292364954948425
12, 26, 0, 2.047797203063965
12, 27, 0, 0.9530665278434753
12, 28, 0, 1.252467513084412
12, 29, 0, 0.943537712097168
12, 30, 0, 3.275106906890869
12, 31, 0, 1.357536315917969
12, 32, 0, 1.634680151939392
12, 33, 0, 0.9416026473045349
12, 34, 0, 3.889613151550293
12, 35, 0, 1.973990082740784
12, 36, 0, 1.278326392173767
12, 37, 0, 0.3129422664642334
12, 38, 0, 2.262819766998291
12, 39, 0, 0.6833468675613403
12, 40, 0, 1.636395454406738
12, 41, 0, 1.955345153808594
12, 42, 0, 3.505153656005859
12, 43, 0, 1.185322284698486
12, 44, 0, 2.597315549850464
12, 45, 0, 1.327441096305847
12, 46, 0, 1.023926973342896
12, 47, 0, 1.637288093566895
12, 48, 0, 2.22999382019043
12, 49, 0, 1.199174761772156
13, 0, 0, 1.23052990436554
13, 1, 0, 1.970457673072815
13, 2, 0, 1.342875599861145
13, 3, 0, 0.6712809205055237
13, 4, 0, 3.799967050552368
13, 5, 0, 0.9790275692939758
13, 6, 0, 1.894545316696167
13, 7, 0, 2.292024612426758
13, 8, 0, 3.017054796218872
13, 9, 0, 3.585015535354614
13, 10, 0, 0.657534658908844
13, 11, 0, 0.9791658520698547
13, 12, 0, 2.03096604347229
13, 13, 0, 1.285117506980896
13, 14, 0, 0.9722512364387512
13, 15, 0, 1.216152667999268
13, 16, 0, 1.647265553474426
13, 17, 0, 0.9799635410308838
13, 18, 0, 2.298901319503784
13, 19, 0, 2.277485847473145
13, 20, 0, 0.995024561882019
13, 21, 0, 0.6553220748901367
13, 22, 0, 1.938858032226562
13, 23, 0, 2.645342111587524
13, 24, 0, 1.273280501365662
13, 25, 0, 2.199679374694824
13, 26, 0, 2.268454313278198
13, 27, 0, 0.9581432938575745
13, 28, 0, 1.255901575088501
13, 29, 0, 1.273119330406189
13, 30, 0, 1.906040191650391
13, 31, 0, 0.6162108778953552
13, 32, 0, 1.926913976669312
13, 33, 0, 2.056949615478516
13, 34, 0, 3.65683388710022
13, 35, 0, 1.528920888900757
13, 36, 0, 2.276060581207275
13, 37, 0, 1.280423521995544
13, 38, 0, 1.591965436935425
13, 39, 0, 1.286630630493164
13, 40, 0, 0.9563144445419312
13, 41, 0, 1.903944253921509
13, 42, 0, 1.551141738891602
13, 43, 0, 1.032426714897156
13, 44, 0, 1.320066571235657
13, 45, 0, 0.6345676183700562
13, 46, 0, 1.963003158569336
13, 47, 0, 0.3315357565879822
13, 48, 0, 2.869580268859863
13, 49, 0, 0.9975441694259644
14, 0, 0, 2.566849946975708
14, 1, 0, 1.582083225250244
14, 2, 0, 1.974416494369507
14, 3, 0, 2.535622835159302
14, 4, 0, 3.568181991577148
14, 5, 0, 1.99661386013031
14, 6, 0, 1.921615839004517
14, 7, 0, 1.611714720726013
14, 8, 0, 1.322970032691956
14, 9, 0, 2.860657215118408
14, 10, 0, 1.952380895614624
14, 11, 0, 2.84758734703064
14, 12, 0, 0.9836028814315796
14, 13, 0, 0.6532415747642517
14, 14, 0, 1.310384750366211
14, 15, 0, 0.3151811957359314
14, 16, 0, 1.314554333686829
14, 17, 0, 1.953970313072205
14, 18, 0, 2.559766054153442
14, 19, 0, 3.295393705368042
14, 20, 0, 1.353991508483887
14, 21, 0, 1.02480685710907
14, 22, 0, 1.893622398376465
14, 23, 0, 1.562418937683105
14, 24, 0, 3.913512945175171
14, 25, 0, 1.730474352836609
14, 26, 0, 1.281413674354553
14, 27, 0, 2.955093145370483
14, 28, 0, 2.237537860870361
14, 29, 0, 1.612833380699158
14, 30, 0, 2.100444793701172
14, 31, 0, 2.711174488067627
14, 32, 0, 1.892335295677185
14, 33, 0, 1.248235940933228
14, 34, 0, 1.317260384559631
14, 35, 0, 1.923437237739563
14, 36, 0, 0.9817267060279846
14, 37, 0, 2.325634956359863
14, 38, 0, 1.287765502929688
14, 39, 0, 2.313357353210449
14, 40, 0, 1.34354567527771
14, 41, 0, 1.006594657897949
14, 42, 0, 0.6447966694831848
14, 43, 0, 2.861756563186646
14, 44, 0, 0.2938407957553864
14, 45, 0, 1.301661252975464
14, 46, 0, 2.300183534622192
14, 47, 0, 2.15773606300354
14, 48, 0, 1.27113926410675
14, 49, 0, 2.204713344573975
15, 0, 0, 2.311648607254028
15, 1, 0, 1.621456503868103
15, 2, 0, 0.942402720451355
15, 3, 0, 2.266043663024902
15, 4, 0, 1.968926668167114
15, 5, 0, 2.267271518707275
15, 6, 0, 1.356865286827087
15, 7, 0, 0.6658195853233337
15, 8, 0, 1.889173984527588
15, 9, 0, 1.83624005317688
15, 10, 0, 0.9799085259437561
15, 11, 0, 2.259095907211304
15, 12, 0, 1.292617559432983
15, 13, 0, 1.91536819934845
15, 14, 0, 1.068612098693848
15, 15, 0, 1.640310525894165
15, 16, 0, 0.307140588760376
15, 17, 0, 0.3232075273990631
15, 18, 0, 2.62666916847229
15, 19, 0, 1.222372174263
15, 20, 0, 2.583571910858154
15, 21, 0, 3.291861772537231
15, 22, 0, 2.273431062698364
15, 23, 0, 1.907175660133362
15, 24, 0, 2.508627891540527
15, 25, 0, 2.161567449569702
15, 26, 0, 2.344963312149048
15, 27, 0, 2.617947578430176
15, 28, 0, 1.677337288856506
15, 29, 0, 3.203717231750488
15, 30, 0, 1.484211444854736
15, 31, 0, 1.302366375923157
15, 32, 0, 1.706510543823242
15, 33, 0, 0.3579805493354797
15, 34, 0, 0.6731311082839966
15, 35, 0, 1.611300230026245
15, 36, 0, 1.311852812767029
15, 37, 0, 0.6021982431411743
15, 38, 0, 2.696773052215576
15, 39, 0, 0.6171295046806335
15, 40, 0, 0.6056579351425171
15, 41, 0, 1.549216151237488
15, 42, 0, 0.6777323484420776
15, 43, 0, 3.111872911453247
15, 44, 0, 2.275936126708984
15, 45, 0, 1.644895911216736
15, 46, 0, 1.278042078018188
15, 47, 0, 2.607807636260986
15, 48, 0, 2.615999460220337
15, 49, 0, 1.596300482749939
16, 0, 0, 0.3175276517868042
16, 1, 0, 1.292188763618469
16, 2, 0, 1.622660160064697
16, 3, 0, 2.009042739868164
16, 4, 0, 1.983258962631226
16, 5, 0, 2.381849765777588
16, 6, 0, 0.9561052918434143
16, 7, 0, 2.86393666267395
16, 8, 0, 1.337318897247314
16, 9, 0, 1.978961944580078
16, 10, 0, 1.628134846687317
16, 11, 0, 0.6291810274124146
16, 12, 0, 1.581260085105896
16, 13, 0, 1.661275267601013
16, 14, 0, 0.9492018222808838
16, 15, 0, 0
16, 16, 0, 1.325892806053162
16, 17, 0, 1.901439905166626
16, 18, 0, 1.685278296470642
16, 19, 0, 0.9667038917541504
16, 20, 0, 0.9937528967857361
16, 21, 0, 0.337763637304306
16, 22, 0, 0.3501005470752716
16, 23, 0, 0.9908896088600159
16, 24, 0, 1.234013319015503
16, 25, 0, 2.339439630508423
16, 26, 0, 0.3302592635154724
16, 27, 0, 1.8504319190979
16, 28, 0, 3.189196586608887
16, 29, 0, 3.179977416992188
16, 30, 0, 0.8859226703643799
16, 31, 0, 1.609609007835388
16, 32, 0, 2.870376825332642
16, 33, 0, 2.048532247543335
16, 34, 0, 0.3401852548122406
16, 35, 0, 0
16, 36, 0, 0.9783583879470825
16, 37, 0, 2.252059459686279
16, 38, 0, 2.338248014450073
16, 39, 0, 1.307980179786682
16, 40, 0, 0.6418118476867676
16, 41, 0, 1.964255928993225
16, 42, 0, 0.9730491042137146
16, 43, 0, 1.958818674087524
16, 44, 0, 1.998110413551331
16, 45, 0, 1.9935462474823
16, 46, 0, 2.379687309265137
16, 47, 0, 0.6243149638175964
16, 48, 0, 0.897223949432373
16, 49, 0, 0.6752743124961853
17, 0, 0, 1.965758204460144
17, 1, 0, 2.280012607574463
17, 2, 0, 1.500375390052795
17, 3, 0, 1.599868178367615
17, 4, 0, 1.618146300315857
17, 5, 0, 0.3390093743801117
17, 6, 0, 2.743157148361206
17, 7, 0, 2.038274049758911
17, 8, 0, 2.024471759796143
17, 9, 0, 1.920204639434814
17, 10, 0, 1.002343893051147
17, 11, 0, 1.628769993782043
17, 12, 0, 1.553635358810425
17, 13, 0, 1.62963879108429
17, 14, 0, 1.006556272506714
17, 15, 0, 1.266070604324341
17, 16, 0, 0.9273853898048401
17, 17, 0, 1.62584400177002
17, 18, 0, 1.603937029838562
17, 19, 0, 2.306805372238159
17, 20, 0, 0.6459209322929382
17, 21, 0, 1.237273573875427
17, 22, 0, 1.982545256614685
17, 23, 0, 3.019450426101685
17, 24, 0, 1.292179703712463
17, 25, 0, 1.575068593025208
17, 26, 0, 2.014245271682739
17, 27, 0, 2.602735042572021
17, 28, 0, 0.9345277547836304
17, 29, 0, 1.908673882484436
17, 30, 0, 2.223494529724121
17, 31, 0, 1.916197657585144
17, 32, 0, 0.6683781743049622
17, 33, 0, 0.988430917263031
17, 34, 0, 2.642581939697266
17, 35, 0, 1.925510287284851
17, 36, 0, 1.534066319465637
17, 37, 0, 1.342182993888855
17, 38, 0, 1.903720736503601
17, 39, 0, 2.020910263061523
17, 40, 0, 2.312629461288452
17, 41, 0, 3.17315936088562
17, 42, 0, 1.593623280525208
17, 43, 0, 2.955580472946167
17, 44, 0, 2.635495901107788
17, 45, 0, 1.341099500656128
17, 46, 0, 1.913333296775818
17, 47, 0, 2.672097206115723
17, 48, 0, 2.897095441818237
17, 49, 0, 1.843312501907349
18, 0, 0, 1.332493543624878
18, 1, 0, 2.580823183059692
18, 2, 0, 1.579067587852478
18, 3, 0, 0.6985591053962708
18, 4, 0, 1.619415640830994
18, 5, 0, 1.665802121162415
18, 6, 0, 0.2988099455833435
18, 7, 0, 1.962609171867371
18, 8, 0, 1.984809041023254
18, 9, 0, 1.310354709625244
18, 10, 0, 3.018318891525269
18, 11, 0, 1.700413465499878
18, 12, 0, 1.685036540031433
18, 13, 0, 2.9981849193573
18, 14, 0, 3.279845237731934
18, 15, 0, 2.564971208572388
18, 16, 0, 2.579432725906372
18, 17, 0, 2.624495267868042
18, 18, 0, 2.564200878143311
18, 19, 0, 0.9720445871353149
18, 20, 0, 1.687830686569214
18, 21, 0, 0.5980297923088074
18, 22, 0, 2.293378353118896
18, 23, 0, 0.3394452929496765
18, 24, 0, 2.594462394714355
18, 25, 0, 2.332263946533203
18, 26, 0, 2.610111951828003
18, 27, 0, 0.6801658868789673
18, 28, 0, 2.54080867767334
18, 29, 0, 3.007539987564087
18, 30, 0, 1.305678129196167
18, 31, 0, 1.323894381523132
18, 32, 0, 1.941661238670349
18, 33, 0, 1.86700963973999
18, 34, 0, 1.278075575828552
18, 35, 0, 0.6207224130630493
18, 36, 0, 1.291384816169739
18, 37, 0, 1.273619651794434
18, 38, 0, 1.294718384742737
18, 39, 0, 0.9939450621604919
18, 40, 0, 3.384922742843628
18, 41, 0, 0.9439265727996826
18, 42, 0, 0.6461341381072998
18, 43, 0, 1.922126173973083
18, 44, 0, 0.9916603565216064
18, 45, 0, 0.9482731223106384
18, 46, 0, 0.6303040385246277
18, 47, 0, 2.947900295257568
18, 48, 0, 1.691099643707275
18, 49, 0, 2.84505558013916
19, 0, 0, 1.286588668823242
19, 1, 0, 1.669431805610657
19, 2, 0, 1.932528018951416
19, 3, 0, 0.3001661896705627
19, 4, 0, 2.919551610946655
19, 5, 0, 1.275381445884705
19, 6, 0, 0.987465500831604
19, 7, 0, 0.6353573203086853
19, 8, 0, 1.69378399848938
19, 9, 0, 0.6980418562889099
19, 10, 0, 1.886251449584961
19, 11, 0, 2.265428304672241
19, 12, 0, 2.327044248580933
19, 13, 0, 2.645997285842896
19, 14, 0, 1.606026649475098
19, 15, 0, 0.6278097033500671
19, 16, 0, 0.3387431502342224
19, 17, 0, 1.971744179725647
19, 18, 0, 0.9993272423744202
19, 19, 0, 1.291764855384827
19, 20, 0, 2.277671813964844
19, 21, 0, 0.3077899217605591
19, 22, 0, 1.270859956741333
19, 23, 0, 0.9352033138275146
19, 24, 0, 0.9519531726837158
19, 25, 0, 1.302407383918762
19, 26, 0, 0.3167312741279602
19, 27, 0, 2.273911952972412
19, 28, 0, 2.661618232727051
19, 29, 0, 1.333230972290039
19, 30, 0, 1.640883564949036
19, 31, 0, 2.010749101638794
19, 32, 0, 2.293340444564819
19, 33, 0, 1.250151872634888
19, 34, 0, 2.270290851593018
19, 35, 0, 1.011852145195007
19, 36, 0, 1.965073466300964
19, 37, 0, 1.972209095954895
19, 38, 0, 2.27191948890686
19, 39, 0, 1.65719211101532
19, 40, 0, 1.663745164871216
19, 41, 0, 1.571999907493591
19, 42, 0, 1.986595988273621
19, 43, 0, 1.238277912139893
19, 44, 0, 1.962392807006836
19, 45, 0, 2.631532192230225
19, 46, 0, 0.9639511108398438
19, 47, 0, 0.2985240519046783
19, 48, 0, 0.9983047246932983
19, 49, 0, 0.6419553160667419
20, 0, 0, 0.6341971158981323
20, 1, 0, 2.256044626235962
20, 2, 0, 1.350836396217346
20, 3, 0, 2.017315149307251
20, 4, 0, 2.271795988082886
20, 5, 0, 1.914165258407593
20, 6, 0, 2.84714150428772
20, 7, 0, 1.613064408302307
20, 8, 0, 0.6209911108016968
20, 9, 0, 1.594243288040161
20, 10, 0, 2.695995569229126
20, 11, 0, 0.9496797323226929
20, 12, 0, 0.3195191323757172
20, 13, 0, 1.252732157707214
20, 14, 0, 0.6278224587440491
20, 15, 0, 2.009590625762939
20, 16, 0, 1.673342704772949
20, 17, 0, 2.317962408065796
20, 18, 0, 2.067383289337158
20, 19, 0, 1.631805539131165
20, 20, 0, 0.2976669669151306
20, 21, 0, 1.268757581710815
20, 22, 0, 1.942622065544128
20, 23, 0, 0.3397838771343231
20, 24, 0, 3.082934379577637
20, 25, 0, 0
20, 26, 0, 1.997552752494812
20, 27, 0, 1.958975911140442
20, 28, 0, 1.706701278686523
20, 29, 0, 2.603679418563843
20, 30, 0, 1.651265978813171
20, 31, 0, 1.621250867843628
20, 32, 0, 2.025669097900391
20, 33, 0, 1.645022511482239
20, 34, 0, 0.9124541878700256
20, 35, 0, 2.258363723754883
20, 36, 0, 1.006542563438416
20, 37, 0, 2.028905868530273
20, 38, 0, 2.536812305450439
20, 39, 0, 0.9522844552993774
20, 40, 0, 1.30169939994812
20, 41, 0, 1.535106182098389
20, 42, 0, 2.32016396522522
20, 43, 0, 1.677658081054688
20, 44, 0, 1.649420976638794
20, 45, 0, 1.985237836837769
20, 46, 0, 1.980286240577698
20, 47, 0, 2.043914556503296
20, 48, 0, 1.910551905632019
20, 49, 0, 1.300966382026672
